dynamic_range_mv,flat_pct,clip_pct,baseline_drift,hf_noise_ratio,snr_proxy,kurt,n_peaks,mean_hr_bpm,rr_cv,pct_physiologic_hr,sqi_score_ecg,mean_motion_mg,std_motion_mg,max_motion_mg,sqi_score_amb,sqi_class,activity_label,subject
3.711956739425659,7.089476873358917,8.3,0.4015361949768712,0.007657672130400778,0.20279191429168872,5.0042912120235155,13,76.43423734534645,0.17643504293783974,100.0,0.6145337743313909,1.0118108222239128,10.969931094696864,519.5124358396855,0.6083158550964848,acceptable,baseline,03FH
0.0,100.0,0.0,0.0,0.0,0.0,0.0,0,,,0.0,0.2,0.3117074615038113,11.612468469472136,519.5124358396855,0.1993765850769924,poor,baseline,03FH
0.0,100.0,0.0,0.0,0.0,0.0,0.0,0,,,0.0,0.2,0.3117074615038113,11.612468469472136,519.5124358396855,0.1993765850769924,poor,baseline,03FH
0.0,100.0,0.0,0.0,0.0,0.0,0.0,0,,,0.0,0.2,0.3117074615038113,11.612468469472136,519.5124358396855,0.1993765850769924,poor,baseline,03FH
0.0,100.0,0.0,0.0,0.0,0.0,0.0,0,,,0.0,0.2,0.3117074615038113,11.612468469472136,519.5124358396855,0.1993765850769924,poor,baseline,03FH
0.0,100.0,0.0,0.0,0.0,0.0,0.0,0,,,0.0,0.2,0.3117074615038113,11.612468469472136,519.5124358396855,0.1993765850769924,poor,baseline,03FH
0.0,100.0,0.0,0.0,0.0,0.0,0.0,0,,,0.0,0.2,0.3117074615038113,11.612468469472136,519.5124358396855,0.1993765850769924,poor,baseline,03FH
0.0,100.0,0.0,0.0,0.0,0.0,0.0,0,,,0.0,0.2,0.3117074615038113,11.612468469472136,519.5124358396855,0.1993765850769924,poor,baseline,03FH
0.0,100.0,0.0,0.0,0.0,0.0,0.0,0,,,0.0,0.2,0.3117074615038113,11.612468469472136,519.5124358396855,0.1993765850769924,poor,baseline,03FH
3.706953525543213,66.8551807715613,67.17999999999999,0.8252905952770851,0.005610472881354373,0.028554621071599763,-0.6342113584589724,6,96.7741935483871,0.016806722661915463,100.0,0.28478501433576164,0.6839960177517803,12.318548031637517,519.5124358396855,0.2828370961785512,poor,baseline,03FH
2.722905158996582,0.0,0.13999999999999999,0.11753152944628655,0.009899840712034544,1.4944163202439287,10.098356298725973,17,107.33486943164363,0.0599492034464199,100.0,0.8379156424368208,1.1233744305802946,3.5864971244456245,175.37754822901448,0.828502712359853,good,run,03FH
2.99694687128067,0.0,0.54,0.06251347223718288,0.011446368571718688,2.1916260304887945,7.155618027868545,18,110.29411764705881,0.025801081881761563,100.0,0.8432733205459456,1.5968607296776927,4.924086475545629,255.47742315426868,0.8298074200462983,good,run,03FH
2.939921259880066,0.0,0.3,0.08935341768804475,0.01284688158109408,2.0499745768443534,6.098309740116047,20,118.57707509881423,0.013367473960496881,100.0,0.818977641565085,1.5729434771087614,5.4303738086662685,257.968373306812,0.8060955861731078,good,run,03FH
2.8579360246658325,0.0,0.64,0.07851076960421706,0.011791219250689617,1.9550737058896617,7.896964875071076,20,121.95121951219512,0.013483401643484098,100.0,0.839016691274176,1.5078618864603934,3.9381947231279057,177.17217770548672,0.8263654783654116,good,run,03FH
3.7089433670043945,0.0,1.0999999999999999,0.11310305302236394,0.013215605542127348,1.9758595400047287,5.906347555271514,21,124.74066390041494,0.009692945898056492,100.0,0.8096284714347808,1.5839770064650578,3.716658066197324,144.07741429405746,0.7968041426094594,good,run,03FH
3.0939417481422424,0.0,0.2,0.061166286844858794,0.012353217767031343,2.600853673444901,6.3167871130849775,22,129.3103448275862,0.017025898712659703,100.0,0.8542983502361895,1.7483683188740535,7.342557587663814,414.4178961606363,0.8393620685319962,good,run,03FH
3.2239692211151123,0.0,1.52,0.09839250298635303,0.01607086263423923,2.0150361105147603,6.145248637193539,23,133.63095238095238,0.024021650562607536,100.0,0.81496364372914,1.868406787360146,7.860845090668448,425.58933928370266,0.7997368076951872,good,run,03FH
2.8998952507972717,0.0,0.0,0.08074959869992009,0.01248217919486808,2.4996728803049226,6.458017199862102,22,131.57894736842104,0.010017391176381786,100.0,0.8515313086042592,1.8263374508314665,4.9882170725766155,201.06904401111763,0.8359794734096644,good,run,03FH
3.0319127440452576,0.0,0.6799999999999999,0.07791993081509552,0.011875584140136829,2.8232256187571303,7.808049191307221,23,137.3004901344728,0.014142596048460845,100.0,0.8864754971108044,1.72906375251594,5.345743735584069,250.49930135658937,0.871147770615326,good,run,03FH
2.919908046722412,0.0,1.04,0.09371966924889558,0.011037277422783725,1.877460329031447,7.7070985172472675,23,139.21188630490957,0.01003868538970007,100.0,0.8300766748694364,1.681574495251142,5.260545011975782,262.51754586255583,0.8161183172138032,good,run,03FH
3.1019582748413086,0.0,1.5,0.1732897418226381,0.012373972666189892,1.484927205212329,4.576589706402818,23,141.50943396226415,0.00969382124581952,100.0,0.7530958476082605,1.5771636740491002,5.048557291499812,251.64343979856096,0.7412182934690109,good,run,03FH
3.171946942806244,0.0,0.88,0.1472840898639673,0.01008112359567192,1.73635304503996,5.566160878962755,24,142.85714285714286,0.012599009002895904,100.0,0.788266805405109,1.5686647901157502,5.311357316074154,264.8192561379305,0.7759015415765488,good,run,03FH
3.3529166877269745,0.0,1.4200000000000002,0.0716809016217837,0.011885972823424426,2.6122060415330695,6.489991098870968,24,143.54066985645935,0.012243397243869693,100.0,0.855034131273864,1.6002988456446823,5.688460692825067,294.28291071779745,0.8413510299412202,good,run,03FH
3.151933968067169,0.0,1.58,0.10995580972039304,0.012952095990484145,1.9054464570912888,5.869549878934695,24,142.85714285714286,0.008880055812436678,100.0,0.803359464813518,1.5923281944807945,5.631432925412186,290.30433047286164,0.7905673455522624,good,run,03FH
2.815920054912567,0.0,1.02,0.15044552495968191,0.011253652781584592,1.4063079749978606,5.198762260033931,24,142.18009478672985,0.007127538160968509,100.0,0.7571027588036688,1.6637048565783106,6.223736622020839,329.1716724363235,0.7445068034361638,good,run,03FH
3.372929632663727,0.0,0.88,0.22172675418982987,0.009336224580733027,1.0615464529649925,4.561934795026832,23,140.18691588785046,0.010501862716005802,100.0,0.7186043550842307,1.6805438186235298,6.013983201180296,334.89148432264886,0.7065278940145032,good,run,03FH
3.586932435631752,0.0,2.26,0.41017665319711993,0.01491972111138819,0.49173486281628004,1.2443769572432926,24,141.50943396226415,0.010897531718466124,100.0,0.612883440753617,1.517794706332846,5.901327724525624,343.5281844241391,0.603581128333868,acceptable,run,03FH
3.614905007183552,0.0,1.82,0.5026875624772061,0.010064291150581267,0.383269487087035,0.39651533021910534,24,143.54066985645935,0.008988463212951988,100.0,0.590427510490379,1.6353535173878624,6.385441481135471,339.61388366077495,0.580771933429949,acceptable,run,03FH
3.474927857518196,0.0,2.08,0.3594101422896345,0.01183409751794923,0.6996623150848372,2.0180728450069028,24,145.63106796116506,0.01238452327918451,100.0,0.6448357960965191,1.709841851619204,6.940581683351976,373.7018611087242,0.633810123780639,acceptable,run,03FH
3.7099668979644775,0.0,2.1399999999999997,0.4539929296999353,0.01213075411769683,0.500345682950589,0.706069012087081,25,149.62686567164178,0.010500636277215715,100.0,0.6058867839894848,1.8253087454709398,7.299278291779563,380.8650249149136,0.5948274795336721,acceptable,run,03FH
3.4859577417373657,0.0,2.06,0.32127643271289874,0.012159201219205294,0.711223949910113,1.7148302564343112,26,152.28426395939087,0.04375459232870912,100.0,0.6414216750502706,1.6582408752892792,4.535253239836176,178.347422090974,0.6307853586516219,acceptable,run,03FH
3.2019664645195007,0.0,2.12,0.17538798506561254,0.015065562223231077,1.3701647200671296,3.147668965224603,26,156.25,0.010909682003737013,100.0,0.7211975664925092,1.721137896148279,5.363106131526244,234.02065852042585,0.7087847618695075,good,run,03FH
3.2419354915618896,0.0,2.92,0.12298394152077906,0.016245215774299004,1.5459868941720067,3.906764012209157,26,157.89473684210526,0.010991020410710756,100.0,0.7449875177610148,1.789966526864928,5.04228853458411,235.3246110473501,0.7316524905637707,good,run,03FH
3.423928678035736,0.0,2.16,0.2450651043152861,0.01159634858520558,0.9870800922814974,2.5369652970959757,26,156.25,0.007763840571457882,100.0,0.6790282645403997,1.6808259575410804,4.0148119048807205,143.05978609072434,0.667614981210964,acceptable,run,03FH
3.3099341690540314,0.0,2.2399999999999998,0.2177383203024075,0.014922787006225041,1.1947148615131384,3.151974261193221,26,155.440414507772,0.007890365428025427,100.0,0.7063317832158938,1.6897672283566725,3.762822684080911,139.77565393379044,0.6943964202196443,acceptable,run,03FH
3.153923749923706,0.0,2.56,0.16796826720806132,0.015315469755995906,1.4274641804802353,3.8107251337729755,26,154.63917525773195,0.0070432378469082405,100.0,0.7349081384371847,1.6240356518286558,3.6956122612647975,137.79772244220544,0.7229729682607745,good,run,03FH
3.6609008461236954,0.0,2.02,0.1872026204200182,0.013242914894998892,1.4333599902466347,3.1079552109550397,26,153.84615384615384,0.007424124193613089,100.0,0.7259201101308516,1.581672197443663,3.9622021224126454,154.92782916243075,0.7144384335732594,good,run,03FH
3.398969292640686,0.0,2.54,0.23176024065083675,0.012382823791160133,1.214809961118053,2.816881543463448,26,156.25,0.004885849737092509,100.0,0.7024227268852669,1.613477411136397,5.331434155734651,272.00408592484257,0.6910892948562848,acceptable,run,03FH
3.215952694416046,0.0,2.96,0.19398500806874358,0.017910287568215506,1.3134212030520063,3.0219955466666013,26,156.25,0.005794804293699661,100.0,0.7129574562858613,1.6439926903369189,5.315039522515773,272.90145225437254,0.7012364878193097,good,run,03FH
3.155970573425293,0.0,1.78,0.12451730238162852,0.012070179313286264,1.6949880879612569,4.4391602100388745,26,157.89473684210526,0.006972597015024487,100.0,0.7665298632758532,1.6626444733467902,4.830475027557107,225.20156472600183,0.7537851968675445,good,run,03FH
2.8899455666542053,0.0,2.74,0.07204587439102807,0.016868986392287594,1.814853574086168,6.27731494125795,26,157.89473684210526,0.005185991008665149,100.0,0.8008487299220438,1.6528633000810922,5.04114914966531,221.14572522912613,0.7876117951759968,good,run,03FH
3.0759753584861755,0.0,0.6799999999999999,0.1757560598197929,0.013376583421036536,1.7697490973836547,4.165505098859826,27,160.0011377858687,0.01075729740513045,100.0,0.7700732127581907,1.64030948154815,5.863863342306056,293.98670211134623,0.7574416288344556,good,run,03FH
3.1529003381729126,0.0,0.8999999999999999,0.1363751292384035,0.011668455788775657,1.7136800113548172,4.432815955483096,27,163.04347826086956,0.005042062368011019,100.0,0.7695701136596643,1.5738723407526727,5.515839322898739,292.68842898174006,0.757458062498076,good,run,03FH
2.9749438762664795,0.0,1.9,0.08672548421557033,0.013291310943567003,1.5450662355201887,5.2547917234548756,28,163.9344262295082,0.003941283590054715,100.0,0.7671765497529995,1.6937542650614676,5.417084245116654,277.5598336840126,0.7541824642210068,good,run,03FH
2.7749276757240295,0.0,0.5,0.11543130069337329,0.021721664160324446,1.938081457587198,6.271264236061942,27,163.04347826086956,0.003928321396194631,100.0,0.8137657827306689,1.6433087912352593,5.572741037887888,272.15068003638555,0.8003930980829914,good,run,03FH
2.8279733657836914,0.0,2.58,0.08963743281503961,0.013797546575158717,1.5369323830896453,6.982041777199452,27,163.04347826086956,0.0044990316282830034,100.0,0.7910937371293533,1.843414613491928,7.495477990468078,410.1275839731111,0.7765105995726914,good,run,03FH
3.111964762210846,0.0,0.0,0.07415834951775033,0.013551157801055756,1.8328297425054858,5.6869626168570715,27,161.29032258064515,0.009349311595026383,100.0,0.7987416595148021,1.8624044381747165,7.864415436164189,409.5344464254562,0.7838658593984481,good,run,03FH
3.0869484543800354,0.0,1.6199999999999999,0.06749851193252686,0.013775753363736157,2.96096380224637,5.4980376250291325,27,163.04347826086956,0.0074392048506270346,100.0,0.8560530762730318,1.7504757250722818,5.4655662449225675,227.21589951802267,0.8410680749791378,good,run,03FH
2.921954870223999,0.0,2.46,0.03934379600429258,0.01588719093449627,2.6588199895406746,5.817259184837196,27,163.9344262295082,0.005394889770515898,100.0,0.8452033401257636,1.7895803912545039,4.334333823029705,192.7610916090573,0.8300777468846448,good,run,03FH
2.9919435381889343,0.0,2.1399999999999997,0.0711461643101147,0.015659650910205256,2.415409217234608,6.532494928294295,28,163.04347826086956,0.0343690170446079,100.0,0.8437769794843868,1.7115314350073605,4.374689810731911,212.75619940915576,0.8293354712391559,good,run,03FH
2.738938271999359,0.0,2.42,0.24535702528110742,0.015061543865482623,2.0476909040810245,7.871329387571116,26,161.29032258064515,0.005085109377084181,100.0,0.8411849906650639,1.7186436348569638,4.485516960884988,218.28826935912932,0.8267280183656266,good,run,03FH
2.8649293184280396,0.0,2.3800000000000003,0.14822578513573564,0.01624505705714003,2.1159212098593216,6.480196367023337,28,163.04347826086956,0.005866325438744301,100.0,0.8247606204347687,1.7135487795910689,3.335283911517976,101.60985916157267,0.810627944888761,good,run,03FH
3.7169599533081055,0.0,1.02,0.03996917843748339,0.010886860604342161,2.0833311837262496,4.931587449669532,27,166.66666666666669,0.05065355561289773,100.0,0.8021825551920373,1.6136118649125637,3.9194083704525804,166.85335336299184,0.7892384423031997,good,run,03FH
2.9269580841064453,0.0,2.8400000000000003,0.05072624516969534,0.018528843323326966,1.9657524726156563,6.041548707781384,28,165.74585635359117,0.004515683150738516,100.0,0.8075014832376107,1.7242948660895745,4.386903742695639,166.9040039219027,0.7935777766185474,good,run,03FH
2.814953565597534,0.0,3.06,0.07216709251378149,0.0177286485300757,1.5052727680032045,6.3014198226249025,27,164.83516483516485,0.0056028352019132045,100.0,0.777450783204056,1.7714721505721456,5.073737358127381,218.09537242935278,0.763678459095191,good,run,03FH
2.950951099395752,0.0,2.36,0.14949272057476612,0.014220506485718553,2.704817491562608,6.071977689821638,28,163.9344262295082,0.006607051401945517,100.0,0.8514833287265944,1.605144443739146,4.793678077832025,222.15966017784206,0.8378157913861743,good,run,03FH
2.8569127321243286,0.0,2.68,0.07568363835673911,0.015057483527361123,2.1297023209811208,6.450227399642744,27,162.60282021151585,0.004938296967487609,100.0,0.8245777930370466,1.6523466379442022,5.520328817261855,278.5523015012034,0.8109529095965644,good,run,03FH
2.8439496755599976,0.0,2.82,0.045641129709906,0.016233508672383185,2.1533055596676376,6.60523285125927,27,164.83516483516485,0.010696056791838163,100.0,0.8280960437208186,1.671679523459682,5.225155284253325,277.20487464408217,0.8142529317233579,good,run,03FH
3.2599586844444275,0.0,1.18,0.048494220760935736,0.011843544357528692,2.1746353899017454,4.521871888207281,28,165.74585635359117,0.006332868282176121,100.0,0.8014446914833274,1.7135081901227822,3.6953160241608782,123.96204488383391,0.7877118710554564,good,run,03FH
3.243982285261154,0.0,1.94,0.06717530406602697,0.01413792157118643,1.97577041935855,5.726388991900864,28,169.49152542372883,0.007672607489387148,100.0,0.8052431524725405,1.6109203599684359,4.227595164085432,209.91573430074018,0.7922713265821086,good,run,03FH
3.0919516682624817,0.0,0.0,0.054757331479482085,0.016473813633483478,1.851233838885758,4.727604491630658,29,170.45454545454547,0.008656329633262362,100.0,0.7856411422789287,1.6659028912877745,4.668077533095039,208.62430256143261,0.7725531237745578,good,run,03FH
2.9529409408569336,0.0,1.68,0.054258683306689426,0.014816109950268106,1.893799983033152,4.679141509967511,28,170.45454545454547,0.009884272355658013,100.0,0.7845042607187829,1.885804957340395,6.338623397506922,326.0009764360389,0.7697100404796015,good,run,03FH
3.040895938873291,0.0,2.1999999999999997,0.05766725354099761,0.014997444194669913,1.8129348877220723,5.4055074948770425,28,169.49152542372883,0.009135257223371353,100.0,0.7887157683340528,1.674214281752267,5.938430164955567,322.59124142941494,0.775510976298172,good,run,03FH
2.97994726896286,0.0,1.96,0.12220384923843432,0.014351368317021152,2.370488477878944,6.277180855023463,29,170.45454545454547,0.007198699512606732,100.0,0.8377880927971214,1.8903123871477059,5.854530924154183,283.9644903439772,0.8219512807009289,good,run,03FH
3.034926176071167,0.0,0.54,0.039674495300672415,0.014941381975131734,2.252527533675847,5.078678883744406,28,170.45454545454547,0.00926492027051201,100.0,0.815795577361698,1.8311374178445192,6.007155521731161,274.5517629672798,0.8008572392915073,good,run,03FH
2.9689740538597107,0.0,1.9800000000000002,0.08398366184201428,0.016102765715255728,1.9835324106075372,5.231470982384188,28,169.49152542372883,0.006890190262626628,100.0,0.7982560089875167,1.6560566645256847,4.429378316799608,195.41297377726985,0.7850364371507021,good,run,03FH
2.928948223590851,0.0,2.08,0.0687052979904825,0.01594352330931074,2.0258421595599567,5.767125957321708,29,171.42857142857144,0.008351484876376299,100.0,0.8088797302973758,1.5955850731366554,3.6886235187615815,145.5343948118246,0.7959733660611229,good,run,03FH
2.8899455070495605,0.0,2.2800000000000002,0.04670407380656544,0.01603805372247826,2.6550850523730687,6.755507585177481,29,171.92118226600985,0.008314405400331175,100.0,0.8594514471675124,1.7435212602462051,6.1018201683421,318.660920517871,0.8444667284646532,good,run,03FH
3.0379393696784973,0.0,2.2800000000000002,0.04273910079351975,0.017778961563505863,2.2635577141274807,5.758383536486553,28,171.42857142857144,0.008235368601567069,100.0,0.8231669522493115,1.6305301002482133,5.555037985905298,317.4021938030054,0.8097449673175906,good,run,03FH
3.0979214310646057,0.0,1.5599999999999998,0.03574144235726833,0.017434132660920754,2.8286266227613326,6.0218638620715925,29,171.42857142857144,0.007530450955750031,100.0,0.8581701452041326,1.733673448644956,3.5161509622046254,124.75364562718771,0.8432922772525306,good,run,03FH
3.009909749031067,0.0,2.12,0.03620431273247172,0.016570311257694408,2.69735241843907,6.718239149575915,29,172.41379310344828,0.007284415909759504,100.0,0.8612939514484645,1.8032099156352546,5.394276325796456,257.5119965935958,0.8457630135131792,good,run,03FH
2.9759673476219177,0.0,1.34,0.025090357017034912,0.01816860281849485,2.7453522408457007,6.159918601515402,29,173.41040462427748,0.007234431610378323,100.0,0.8567925984562009,1.9293207298622899,5.787140969705576,253.16401664550713,0.8402623212422596,good,run,03FH
2.946914315223694,0.0,1.6199999999999999,0.04679313215616112,0.01692768074041803,2.299659425645222,5.851874463478357,29,172.41379310344828,0.010147186736344732,100.0,0.8280143246063193,1.8549473498326605,4.7663907665819245,177.35148262665962,0.8126550948357996,good,run,03FH
3.1379475593566895,0.0,0.12,0.05252378081054309,0.016221235472666774,2.607958045930059,6.348783259667101,29,174.4186046511628,0.009655288855519497,100.0,0.8553001921969553,1.7771008854168857,4.150421548199504,171.95024765750932,0.8401006449084509,good,run,03FH
3.0239530205726624,0.0,1.7000000000000002,0.06326625658182966,0.017374199312735688,2.5614476181721417,5.979966762279229,28,174.4186046511628,0.1602869946501969,100.0,0.8442168164560546,1.6706371532453348,3.597728927136034,119.2832279034135,0.8301130166663948,good,run,03FH
3.043909251689911,0.0,1.46,0.042905876597084336,0.016382730730584383,2.555968360965021,6.219029082476169,29,175.43859649122805,0.008940267814507642,100.0,0.8479976495824754,1.6192615442553269,3.743901110740469,123.40279834496884,0.8342663497465973,good,run,03FH
3.7109901905059814,62.452029892950925,63.75999999999999,0.8382962851617055,0.012652659714539816,0.08034730763036871,-0.018042059723349713,11,173.91450463772014,0.006066418639499333,100.0,0.3056087504270735,1.0493112451721511,11.14026353641206,519.5124358396855,0.3024019634426121,poor,run,03FH
0.0,100.0,0.0,0.0,0.0,0.0,0.0,0,,,0.0,0.2,0.3117074615038113,11.612468469472136,519.5124358396855,0.1993765850769924,poor,run,03FH
0.0,100.0,0.0,0.0,0.0,0.0,0.0,0,,,0.0,0.2,0.3117074615038113,11.612468469472136,519.5124358396855,0.1993765850769924,poor,run,03FH
3.7109901905059814,69.64249646536054,70.52000000000001,0.7966510270459336,0.006628341059929973,0.0646155325330875,0.5624497803568032,9,172.91209886386287,0.006083862634542137,100.0,0.2845723080257542,1.0232832402707253,11.639610004977047,519.5124358396855,0.28166032729127505,poor,run,03FH
3.0329360961914062,0.0,2.02,0.03600388632232843,0.016741223207156892,2.815789459750027,6.113338238372702,29,174.4186046511628,0.010438883489378882,100.0,0.8580330972186414,1.9168591803512398,4.238106144855912,160.8618849427233,0.8415858110241539,good,run,03FH
3.019916296005249,0.0,1.66,0.031558674933659936,0.016392720912193865,2.708885384572317,6.928548433605821,29,174.4186046511628,0.007974681904388829,100.0,0.8659293151803195,1.9734032734824256,4.921441392292507,186.04548640965035,0.8488410377285072,good,run,03FH
3.1769502758979797,0.0,0.2,0.056629002342929634,0.01603986916077389,2.4298088511349625,5.7370708016052205,29,174.4186046511628,0.00824544253167804,100.0,0.8365225947540156,2.058327206309069,6.490626069548812,308.78365343770474,0.819304222599271,good,run,03FH
2.9889301657676697,0.0,1.6400000000000001,0.04568874963036966,0.015023624672849942,2.228132337973724,5.89838981572033,29,175.43859649122805,0.010363223344225573,100.0,0.8244298945658847,2.159388025582663,6.318014221269135,303.3617920584707,0.8066272541433052,good,run,03FH
3.0269094109535217,0.0,1.4200000000000002,0.1875505730266006,0.015235817005772931,2.0572878087712247,5.550655556167641,29,175.43859649122805,0.008828036648082424,100.0,0.8089957103951397,2.014133917811606,4.9009942432986096,176.9116893487539,0.7927014533984302,good,run,03FH
3.1009348034858704,0.0,1.6400000000000001,0.044489177143397264,0.016552551851860907,2.575746663791054,6.314744713580774,29,176.47058823529412,0.008212499258620793,100.0,0.8500991134962551,2.076116713211561,6.379496110294689,308.3125516600416,0.8324500637220961,good,run,03FH
2.9589675664901733,0.0,1.22,0.030947321802348007,0.01591148049807578,2.3417436925146666,6.0436452875998725,30,176.47058823529412,0.00856597096870017,100.0,0.8341267365458302,2.2290613560969743,6.319325975195872,296.0660153547788,0.8155335398006144,good,run,03FH
2.9389545917510986,0.0,1.22,0.05205675314050661,0.014721987624627446,2.56866066270673,6.722624379229801,29,176.9926905673512,0.008848913261654191,100.0,0.8566908974199746,2.0358291406393203,4.601920777166301,140.73856126740995,0.8392501344850942,good,run,03FH
2.9639140963554382,0.0,1.32,0.04290332548583608,0.016113399235038194,2.8186424500648,6.468631789675186,30,177.51479289940826,0.007916194885598239,100.0,0.8648937595732449,2.0444639095464665,6.215055138434993,326.3040072921538,0.8472113188028503,good,run,03FH
3.122937858104706,0.0,1.7000000000000002,0.04615363610672638,0.013623680131554789,2.40218507100647,5.839755715391375,30,179.64071856287424,0.008171569473353315,100.0,0.8335294652598103,1.8448318258376422,6.04833949858829,330.96179058097886,0.818152248406963,good,run,03FH
3.027932822704315,0.0,1.38,0.031545648625321145,0.016008110243964778,2.852155263396071,6.534055780915567,30,179.64071856287424,0.011573606809422191,100.0,0.8672832735568409,1.8903915265260482,4.464881022380176,181.02183604751121,0.8508882240425446,good,run,03FH
3.0069532990455627,0.0,1.0,0.048556167735428625,0.01758291311198319,2.7444642896818534,7.081856659006583,29,178.57142857142856,0.006161299618648109,100.0,0.8712593553467409,1.851775047404339,4.371857557020567,184.09442452348767,0.8551255920062542,good,run,03FH
3.1239611506462097,0.0,1.58,0.05071978495259631,0.015877618023540548,2.662059774146282,6.807029355829288,30,179.64071856287424,0.009163839267250989,100.0,0.8619706381696551,1.9534957177499512,3.8648097129430687,120.78982823371764,0.8451320786647489,good,run,03FH
3.042942762374878,0.0,0.16,0.04178115627624769,0.015571963394473717,2.686097896017166,6.093477150559874,30,179.64071856287424,0.00783343638145026,100.0,0.8552923512082921,2.2181335058959006,6.001073987888354,285.9523720637972,0.836320824992776,good,run,03FH
3.053915560245514,0.0,1.06,0.030429755164037054,0.014970508469972452,3.023325339176118,6.824587990059939,30,179.64071856287424,0.008656668096124783,100.0,0.8797008849644403,2.1961652848232074,6.131878662202519,286.82136884496697,0.8603811995185687,good,run,03FH
2.9409446120262146,0.0,1.52,0.030383565360358984,0.015739420681860645,2.7896791856245846,6.8664850327662705,30,178.57142857142856,0.008169273794975014,100.0,0.8691204857409244,2.0426771388961296,4.208781497570913,126.6551088751757,0.8513671602692315,good,run,03FH
2.998936712741852,0.0,1.38,0.03798954684513954,0.015533748863843035,3.433301745101594,6.903152654124607,30,179.64071856287424,0.008171569473353315,100.0,0.8955578126698183,1.9404978744896304,3.6235349347021657,101.41586589555907,0.8781795323501346,good,run,03FH
3.020939588546753,0.0,1.1400000000000001,0.03269313274688406,0.015487973878417775,3.2744040126912926,7.0014093139277875,30,178.57142857142856,0.007611953880930347,100.0,0.8919651349935069,2.005356014014599,4.865217733519415,223.57378599711697,0.8740780585160012,good,run,03FH
3.0109331011772156,0.0,1.28,0.02846782692256648,0.015627718244673836,3.755285997795589,7.2521266434075375,30,179.64071856287424,0.00906450237256476,100.0,0.9108549975009617,2.0459698374234287,5.188200423509269,222.12922139418617,0.892219178989428,good,run,03FH
2.9019418954849243,0.0,1.24,0.040907203803727796,0.01596544936866818,3.4142457914931303,7.10619347752392,30,180.72289156626505,0.00815581961925236,100.0,0.8982430661011803,2.0984031504081364,4.833743356354993,148.52505370263768,0.8793943053037905,good,run,03FH
2.984950363636017,0.0,0.9199999999999999,0.03652525945203083,0.01763551995861407,3.494481663565822,7.389047598798387,30,181.8181818181818,0.0077827181757979804,100.0,0.9057777596598343,2.224257573945469,7.983347720004119,436.5460870876663,0.8856309292374869,good,run,03FH
2.875902235507965,0.0,1.04,0.021284260413825567,0.016552725801773756,3.6296752285143965,7.332769038847983,30,181.8181818181818,0.009581290748672845,100.0,0.9089056393364461,2.307742803975925,8.277278303861914,435.0227283229731,0.8879304348497279,good,run,03FH
2.886932134628296,0.0,1.06,0.027880363794526603,0.015138108794526326,3.492005371805373,7.079072939667242,31,181.8181818181818,0.008703842565201918,100.0,0.9007680224157367,2.209312855529419,5.101228436125658,157.58149513897504,0.8808672386980078,good,run,03FH
2.933894455432892,0.0,1.02,0.0427897110760473,0.01739504533869827,3.1464794341451046,7.395704934368693,30,182.92682926829266,0.008091192312662317,100.0,0.8933004835265287,2.0917132613605585,4.308723437590775,93.26931579046499,0.8746151988488062,good,run,03FH
3.020939588546753,0.0,0.98,0.02664155236921027,0.01725303876109533,3.3423416135927955,6.904379177461708,31,182.92682926829266,0.00824784385721294,100.0,0.8932592202325045,2.1386795652646025,5.5178438172897275,246.40745903726463,0.87415526782455,good,run,03FH
3.0519256591796875,0.0,1.1199999999999999,0.05372439163239936,0.016379286548001203,3.0007320212745214,6.744661251567662,30,182.92682926829266,0.007895900050771456,100.0,0.8774389028628684,1.9483640548032315,5.068868211679723,226.90475004137838,0.8603431986766285,good,run,03FH
2.9039886593818665,0.0,0.84,0.02838428912217913,0.016078033350788445,3.4028211136130193,6.978161701722366,31,182.37250554323725,0.007448536855138084,100.0,0.8967354855882474,1.9505758883657804,3.847142627384276,120.51106850590814,0.8792439794239433,good,run,03FH
2.874935746192932,0.0,0.96,0.04393316032225151,0.01672444656787416,3.5873914414315107,7.610028033092981,30,182.92682926829266,0.007239361683342575,100.0,0.911940866408449,1.9688737614394785,3.7354449941496597,105.89933245369306,0.8939859019698891,good,run,03FH
2.92394483089447,0.0,1.04,0.031690936477973136,0.0183738484258804,3.7472363055125237,7.222985756718817,31,184.04907975460122,0.008194244915947467,100.0,0.9106723196485415,1.8611611854612746,4.9230350239163405,246.53740883820873,0.8937232399085029,good,run,03FH
3.056929111480713,0.0,0.74,0.036597071178823146,0.017508931978146392,3.088189163453309,6.958897719432187,31,185.1851851851852,0.007211910343085286,100.0,0.8850033073388545,2.0162681096321204,5.574170895102859,250.64720904966399,0.8671592678837916,good,run,03FH
3.052949070930481,0.0,1.34,0.054138340279634406,0.01779484012072328,3.303438271757532,6.860723297097584,31,184.04907975460122,0.00929999213303553,100.0,0.8905039459013027,1.9443951600117395,4.101030720708758,131.41088741514739,0.8731890302774842,good,run,03FH
2.8799389600753784,0.0,0.9400000000000001,0.08168123621363167,0.016628852662240474,3.378190377926561,7.145828400918191,30,182.92682926829266,0.008590410552414291,100.0,0.8982077305513788,2.0204134381275085,5.7498692100839985,271.00653199266895,0.8800602208610186,good,run,03FH
2.967950761318207,0.0,0.98,0.029459978293961006,0.016699923888094603,3.611171398146099,7.285779656500143,31,182.92682926829266,0.008351729680218042,100.0,0.9077627708300805,2.005086569776486,6.017392316257176,282.666732947186,0.8895613414267357,good,run,03FH
2.97989022731781,0.0,0.5,0.02358179345854499,0.01622557959399616,3.8400081977608864,7.451384062251595,30,182.92682926829266,0.006860017086542182,100.0,0.9177164539908979,2.0252376817169897,5.197271393068952,188.59338419949657,0.8991305145533572,good,run,03FH
3.0019500255584717,0.0,0.8,0.026726165499038848,0.017253282115128152,3.6302209384039608,7.004287505327179,31,184.04907975460122,0.007811777966494206,100.0,0.9044747863271725,2.1546496073819768,6.852466482779036,336.0848840932906,0.8849865238947051,good,run,03FH
2.9709641337394714,0.0,1.08,0.034854717652551825,0.016323254868686955,3.28194414102931,6.991332663858579,30,182.92682926829266,0.008492629316043136,100.0,0.8922079956957212,2.245057423532592,6.28273100830051,271.91214213801106,0.872177413855003,good,run,03FH
3.0019500851631165,0.0,0.72,0.024708575948819093,0.017482253421583566,3.7153983025838344,7.05465177117207,31,184.04907975460122,0.008908101555765522,100.0,0.9078850423310687,2.192145329895994,5.028417713970606,171.30999668256774,0.887982882774784,good,run,03FH
3.1089513897895813,0.0,0.76,0.02473039157715102,0.017861032881421143,3.747737471154273,7.132324229615692,31,185.1851851851852,0.009359552250928915,100.0,0.9098864701561274,2.2288990350214664,5.81100513858568,244.50576987316686,0.8896060194030266,good,run,03FH
2.912915050983429,0.0,0.42,0.018686173046199166,0.020064851581521097,3.535639031505158,7.089495316776555,31,185.1851851851852,0.007719404176884911,100.0,0.9036002358192889,2.1824161641454403,7.192636872988767,331.10440102262805,0.8838799182135124,good,run,03FH
2.9019418954849243,0.0,0.9400000000000001,0.020535653271211787,0.01836385267924624,4.355957937405712,7.694377829181635,31,186.33540372670808,0.007422632267356262,100.0,0.9323611290906436,2.2832474949102197,7.514920029725249,327.92068129871205,0.9110730169671648,good,run,03FH
2.9299145936965942,0.0,0.58,0.03681034076478378,0.018844614099224964,3.815138537856693,7.247322657509034,31,187.5,0.008119925021486812,100.0,0.9138282018689573,2.2716292216953176,6.698124524151612,254.20016232436137,0.8930694133992092,good,run,03FH
3.1619404554367065,0.0,0.4,0.024507433998918644,0.018356321620232915,3.8162640781582784,6.747238725700848,32,188.67924528301887,0.008300780069445226,100.0,0.9067173494974857,2.2161477393237576,6.69265220451872,250.2286174637035,0.8866231534545409,good,run,03FH
2.9909769892692566,0.0,0.58,0.044840920826022285,0.01889516029007965,3.1863210128995108,6.847031548551026,31,188.67924528301887,0.00844215468374041,100.0,0.8874861563394023,2.0820244993912804,5.102665931241713,229.74743588593861,0.86900847713571,good,run,03FH
2.990920126438141,0.0,0.7000000000000001,0.017728964252524695,0.019347243539575187,3.603927902949013,7.062096973495741,31,187.5,0.007716751046696103,100.0,0.9047475149026314,2.1484776849330216,5.019373696878163,188.65728418783934,0.8853092164399623,good,run,03FH
2.9169517755508423,0.0,0.7000000000000001,0.059444020288894,0.017970563527807737,3.1777023354947813,6.705258781428885,31,187.5,0.0077066499636084616,100.0,0.8847900474570408,2.177704107056879,6.993611447878088,321.841325210911,0.8655219382547383,good,run,03FH
2.876925766468048,0.0,0.32,0.018891274421986494,0.019287355582237833,3.8345847985066825,6.877740253416899,31,187.5,0.008193028625079566,100.0,0.9093270760401712,2.1839467072173284,6.914756369247685,321.3746414230537,0.8894678573051562,good,run,03FH
3.060908794403076,0.0,0.44,0.031985179150342484,0.019456241377304142,3.6566392536403507,6.483579159644766,31,188.08962264150944,0.007541161923609756,100.0,0.8981707112087419,2.0086160700285682,4.690967381757092,203.273055379508,0.8801299099671133,good,run,03FH
2.915985107421875,0.0,0.6799999999999999,0.155698760613855,0.016071146049967195,4.057899846418349,6.913538302540694,32,187.5,0.00804192712863507,100.0,0.9147450930434172,2.093476469945348,4.331794982761916,123.10811009467032,0.8955951197605736,good,run,03FH
2.948961079120636,0.0,0.42,0.024489273446638874,0.01978972388954385,3.5490542788779083,7.112721781548203,31,187.5,0.006961401396191742,100.0,0.9043711009359243,2.0782414197796197,6.00012216522318,286.01619944758784,0.885576086127757,good,run,03FH
3.131920874118805,0.0,0.7799999999999999,0.04026064677766332,0.019481736615780027,3.0531216102422345,6.283367318603716,31,187.5,0.008090579637368712,100.0,0.873369815035611,2.0311334000010652,6.544003500441809,275.3121703661689,0.8556305090168952,good,run,03FH
2.846963107585907,0.0,0.36,0.0287945588590058,0.017685710356218347,3.586917573796944,6.666455588162908,32,188.67924528301887,0.006732239526048779,100.0,0.8989727223480108,2.326083796484439,5.803097124846763,240.06164503000588,0.8780618635186588,good,run,03FH
2.920988380908966,0.0,0.4,0.03428060884998349,0.017155999085605892,2.8774284726226744,6.716347492865468,31,189.873417721519,0.007331174193337272,100.0,0.8731134959261135,2.1180456565876966,4.164421547504358,99.87853598039092,0.8546205534485695,good,run,03FH
2.8489529490470886,0.0,0.54,0.029371542039867,0.017668943120030936,3.4565586350913002,6.955594428641671,32,188.67924528301887,0.008457890070151615,100.0,0.898797025058644,1.9991621142983542,4.014970863682477,109.63181104426783,0.8808286154492309,good,run,03FH
2.909958600997925,0.0,0.0,0.023415331183318913,0.017478265938457724,2.804032910389092,6.247871989589866,31,188.67924528301887,0.008350675147782247,100.0,0.8635482756178315,2.0403097594149906,4.068817458849721,123.20517429323388,0.8459292158731411,good,run,03FH
2.9389546513557434,0.0,0.5599999999999999,0.13516591637365943,0.018874384271056584,3.1473406788027436,6.61129247582239,32,188.67924528301887,0.00909224344542989,100.0,0.8824878339709213,2.1513988506618524,5.3005011329850165,201.12025536671024,0.8635020008536403,good,run,03FH
2.8969388008117676,0.0,0.5599999999999999,0.03468186334237201,0.017453799745415,2.9586400909877297,6.094106913338672,32,189.873417721519,0.008657172307072733,100.0,0.8670145209957268,2.212355954027267,6.309312378125001,242.44489085754017,0.8478330736181969,good,run,03FH
2.9719305634498596,0.0,0.5,0.06606745475358815,0.018037975576469297,2.991703488616238,6.32309463229705,31,189.873417721519,0.008252170008198133,100.0,0.8719754995587479,2.267739956453942,5.972539499648247,236.5901254496777,0.8522013627447653,good,run,03FH
2.9419111609458923,0.0,0.42,0.029783758167664886,0.016905749205854304,2.742812192148595,6.2343511017059825,31,188.67924528301887,0.0082848336681534,100.0,0.8596279955377146,2.2236730239801066,5.487543181735799,182.08984902925275,0.8405126796943615,good,run,03FH
2.90694522857666,0.0,0.62,0.1705205543371539,0.016990384454330428,2.4330997201216054,6.294931499372877,31,188.67924528301887,0.007628259500458778,100.0,0.8442319278089456,1.9758713547861924,5.9397388816596,266.86778643020426,0.8275509909794094,good,run,03FH
2.920931577682495,0.0,0.22,0.03708658494443172,0.016139212588899964,3.0483852256523263,6.547430851092269,31,187.5,0.009817485212973438,100.0,0.8782569354796292,1.8076635239298142,6.487539952701147,268.626066800147,0.8623810052105801,good,run,03FH
2.9269012808799744,0.0,0.54,0.06689750175751936,0.01706805219611322,2.7288768705737163,5.961282676278561,31,183.48795451144696,0.009055381993561502,100.0,0.8546249951633219,1.510704372236137,5.388515957859115,267.4998168942867,0.8417141379951667,good,run,03FH
2.877949059009552,0.0,0.32,0.027557971015189087,0.015363845039332014,2.9556421480730855,6.4255344021675675,30,181.8181818181818,0.006452277462482033,100.0,0.87233726868962,1.3804614511852074,3.729585497336917,177.26548409958804,0.8602949889710378,good,run,03FH
2.829963445663452,0.0,0.06,0.035756437584275824,0.015539580225514138,3.1105257172120613,7.004448903653769,29,177.51479289940826,0.009288341778778875,100.0,0.8879381033093187,1.1210312166789904,3.8863880869890304,200.18480397170245,0.8779840399864338,good,run,03FH
2.745931565761566,0.0,0.0,0.09924319778177851,0.016060858785364937,2.993606921318114,6.569488026934373,28,172.41379310344828,0.015443554830841122,100.0,0.8767516382312586,0.8714725336422725,4.165291238344307,200.40542652988808,0.8691109885158145,good,walk_after,03FH
2.7729376554489136,0.0,0.0,0.024281890577751902,0.014095923433637608,2.474546849500344,6.3775591047561875,28,165.74585635359117,0.017709922347277602,100.0,0.8489735164835749,0.8769643409480479,4.6064517010513555,236.0776185845729,0.8415283214799212,good,walk_after,03FH
2.775894045829773,0.0,0.0,0.048188191879180275,0.014426531524194553,2.82835150332044,7.182830817115528,26,157.89473684210526,0.014091700734313373,100.0,0.8786920617475699,0.8682092086292834,4.239876469850838,234.56404253052932,0.871063176351983,good,walk_after,03FH
2.8459396362304688,0.0,0.06,0.04880568344571321,0.014126916857133132,2.4818580914391526,6.553365040739255,26,154.63917525773195,0.020073102624919962,100.0,0.8518852879066555,0.8439478663943252,2.5147043686047836,118.9477117585217,0.8446958201952401,good,walk_after,03FH
2.734958589076996,0.0,0.06,0.03624938003821422,0.01302805700452722,2.340488801776215,6.574096106851314,25,149.25373134328356,0.008201735635465151,100.0,0.8443315063566589,0.8277116553270298,2.803955799049004,147.44633789937478,0.8373428760689465,good,walk_after,03FH
2.785900592803955,0.0,0.06,0.040083776372147974,0.014185998173696108,2.395256238038512,6.659535665329585,25,150.0,0.007723511499666042,100.0,0.8487185850597435,0.8755161251951747,3.60189432459013,168.50328758904865,0.8412879169900171,good,walk_after,03FH
3.714970111846924,0.0,0.08,0.04666127470765707,0.011021689491943052,2.047514569956772,7.022749819276491,23,147.05882352941177,0.05964689222627575,100.0,0.8331248679397465,0.8742800675033706,3.340090079014697,169.6637977001437,0.8258410232819354,good,walk_after,03FH
3.035949409008026,0.0,0.08,0.1118089577255834,0.012217561920004645,1.802601741661368,6.474075071201103,24,142.18009478672985,0.021619559771561325,100.0,0.8082510440851116,0.8497628416515112,3.092678043163115,150.04098596497118,0.8013828270452159,good,walk_after,03FH
2.7829442620277405,0.0,0.12,0.03212641366474612,0.013713741675411237,2.5040944071259275,8.874667117237285,23,139.53488372093022,0.016090929338585344,100.0,0.8877771938763783,0.8083150383931282,3.4128340589022184,150.0660168882775,0.8806011573108511,good,walk_after,03FH
2.719948649406433,0.0,0.22,0.08366870050115671,0.012067227115726888,2.3018873174505905,8.451147117854223,24,138.88888888888889,0.01942064192158666,100.0,0.8699334782087927,0.8656068911383692,3.1784053752792096,157.7252522323963,0.8624032740730977,good,walk_after,03FH
3.7099668979644775,0.0,0.24,0.037643649809832334,0.010645016676342097,1.9000902958805377,7.905499676693749,23,140.18691588785046,0.08274546001848974,100.0,0.8362116508388256,0.8466682497687104,3.277185326436917,165.66841581596373,0.8291317122903065,good,walk_after,03FH
2.7369483709335327,0.0,0.12,0.05519192660810919,0.014515378596122832,2.8448143795862184,10.245744907342273,23,140.51599315519283,0.013137065932811791,100.0,0.9214598510839425,0.8346165584110802,4.11656350396919,197.61806323075697,0.9137691945876858,good,walk_after,03FH
2.894948720932007,0.0,0.06,0.04211451053029733,0.013631900948775035,3.0320573083601476,11.29780404509065,24,138.88888888888889,0.007976210043833608,100.0,0.9296936528287048,0.8314659723903053,3.8543615231784423,196.69726780699648,0.9219635664579615,good,walk_after,03FH
2.6669598817825317,0.0,0.0,0.11056940886404003,0.014574985946835957,3.05679780025501,11.87566815625012,22,135.74660633484163,0.010167837551943152,100.0,0.9308294261925076,0.8376655568601167,3.4416954855294892,161.95333951861807,0.9230321886961744,good,walk_after,03FH
2.6669028997421265,0.0,0.0,0.030941658900674907,0.014242300443896912,3.6925889385376593,11.91541567948047,23,135.74660633484163,0.0062997678447482604,100.0,0.9528488378871032,0.8501436059461459,3.2024727614174133,161.06236279412008,0.9447482544174739,good,walk_after,03FH
2.7519012689590454,0.0,0.24,0.06830641752919417,0.01379014428146105,3.0889670405653638,12.327729180702677,22,134.52914798206277,0.016031067308397724,100.0,0.9316510624372991,0.8620542827252833,3.012043120868203,146.0541113053136,0.9236197245535027,good,walk_after,03FH
2.6629798412323,0.0,0.06,0.024841310129715608,0.014455990371294903,3.5986568346362167,12.870850647578793,23,137.61467889908258,0.005201997487790846,100.0,0.9499353975796863,0.8338075586247087,3.249065440526516,149.33660220209083,0.9420147644326151,good,walk_after,03FH
2.9259347915649414,0.0,0.33999999999999997,0.08656671474013372,0.013839615870164078,2.703249107768292,11.466540496452941,23,137.61467889908258,0.006438751496297327,100.0,0.9143674430596884,0.85141099617863,3.604431860521702,175.4953376843821,0.9065824181040009,good,walk_after,03FH
2.6499600410461426,0.0,0.2,0.036629144742536084,0.013028507718344084,3.5157592901509336,14.247858725885425,22,132.15859030837004,0.009677090139122935,100.0,0.9470659878482728,0.8691508293638468,3.6655694219307096,174.09614966061338,0.9388345559602665,good,walk_after,03FH
2.6349503993988037,0.0,0.2,0.02184235008043932,0.014173286473127955,3.5291596653420365,14.173156859311554,23,133.92857142857142,0.012573841664995828,100.0,0.9474926381185502,0.798982555469453,3.363342044224537,149.42621187856568,0.9399223372256257,good,walk_after,03FH
2.8509430289268494,0.0,0.36,0.12656131534977247,0.013547020337114952,1.7853831828322577,10.58299439852483,21,128.2051282051282,0.008507093317820586,100.0,0.859352049447101,0.8040511867119263,3.3070224309541025,149.72612891692648,0.8524424190954882,good,walk_after,03FH
2.5568881034851074,0.0,0.06,0.02672106447952491,0.013866581850557558,3.3247563285397383,15.835330830237417,21,127.11864406779662,0.01372800707120316,100.0,0.9409131015199055,0.7735483350657087,3.4837267065032522,162.72560443428162,0.9336346838886831,good,walk_after,03FH
2.5709314346313477,0.0,0.0,0.03524534650485331,0.013919430981790859,2.9566262362636078,15.769574766800925,22,128.2051282051282,0.040196718690577525,100.0,0.9266365088225998,0.7563319842999908,3.5719342624397403,164.37645291786603,0.9196280605281737,good,walk_after,03FH
2.5959476232528687,0.0,0.36,0.15993730141606655,0.01136484217008866,2.1457944360214802,14.975330295379216,21,125.78671636018424,0.032180619385213015,100.0,0.8834702943457176,0.8093977806678596,3.546851071651062,161.49710778634807,0.8763195053904235,good,walk_after,03FH
2.6359169483184814,0.0,0.32,0.23364995719460624,0.011859380498221177,2.3919060894196407,14.737552992639614,21,131.00436681222706,0.010868806234600157,100.0,0.8981177258068156,0.8239886671124182,3.696545080668952,164.8702388914853,0.8907173375288396,good,walk_after,03FH
2.605954170227051,0.0,0.36,0.038252663622923976,0.012369807632997002,3.3078800413021723,15.140298270660491,22,129.87012987012986,0.00918099707744415,100.0,0.9397121640884677,0.8105509004126432,3.7892422946618773,170.56839107608766,0.9320953186811615,good,walk_after,03FH
2.5749112367630005,0.0,0.3,0.030755575729905463,0.012173674556944675,3.3440182597109978,15.29901325272025,22,129.87012987012986,0.011186273602572414,100.0,0.941112381630637,0.8147736947307601,3.6438210100407056,170.882183413079,0.9334444455072564,good,walk_after,03FH
2.5549551248550415,0.0,0.13999999999999999,0.042868023684323776,0.013919746062001416,3.04129831629451,14.925996005734014,22,133.92857142857142,0.013154471292683576,100.0,0.9299145674658744,0.8184679886134028,3.0932358002188627,150.25432322826543,0.9223035144097135,good,walk_after,03FH
2.719948649406433,0.0,0.24,0.06751545705664593,0.015641976023135287,2.8119018108198484,14.731346630347002,22,131.57894736842104,0.01610725460778728,100.0,0.919713867007171,0.8312566292228559,3.7938272500241057,205.6821646051208,0.912068684517792,good,walk_after,03FH
2.6429100036621094,0.0,0.58,0.03866401153232721,0.013142915405144681,3.2432707087815134,15.808639348056907,21,129.87012987012986,0.01645092709705231,100.0,0.9369209136717637,0.9027067253529385,4.105838416184282,204.55737975497556,0.9284632655728104,good,walk_after,03FH
2.532952308654785,0.0,0.12,0.023128057988066313,0.01387103338258257,3.954568642897272,16.52605227598833,22,128.2051282051282,0.00897797093785957,100.0,0.959659896467109,0.7903542916070095,3.313517095665217,153.05915192598724,0.9520751832905499,good,walk_after,03FH
2.614937424659729,0.0,0.64,0.06751619427840333,0.012451715634166693,2.974743866818212,14.76192090005005,21,125.0,0.02672589019123671,100.0,0.9261307347116585,0.8205762288068108,3.496237500573195,167.52249665285612,0.9185311260549408,good,walk_after,03FH
2.569908022880554,0.0,0.33999999999999997,0.06012047413998295,0.011882827409654994,2.9913790095633637,16.426329405174812,20,124.48132780082987,0.010608552119801948,100.0,0.9274353941806386,0.7983520638126534,3.315502074744247,165.697666577317,0.9200311945706684,good,walk_after,03FH
2.5689414739608765,0.0,0.7000000000000001,0.04793868665126603,0.012250807816814138,3.1434539793994594,14.95676857369537,21,126.05042016806723,0.015113350094220487,100.0,0.9328869773846067,0.8332368256935085,2.726738402703719,122.46051283842813,0.925113819546939,good,walk_after,03FH
2.5659849643707275,0.0,0.52,0.07340035548705262,0.012235321421172313,2.7206721514218524,14.799701642404283,21,125.26150627615064,0.008803630417426427,100.0,0.9148509644290794,0.8231541665309369,3.569939004374307,191.38583210436798,0.907320330597833,good,walk_after,03FH
1.5389126539230347,0.0,0.0,0.048568144031655644,0.004555894244910037,1.4051168760332504,14.363398107379783,11,69.44444444444444,0.009412782348129745,100.0,0.8310649658682747,0.7718614602521967,3.989455055248109,177.9058263660711,0.8246502956870794,good,baseline,3B8D
1.3749501705169678,0.0,0.0,0.0354221364837104,0.0052486932067935055,1.9654854345477426,21.282456634203957,12,69.76744186046511,0.008085453276409468,100.0,0.8725403828093521,0.7948520396739034,4.061165342524782,183.18290119229374,0.8656049777796135,good,baseline,3B8D
1.952974647283554,0.0,0.0,0.12449960581657134,0.004756620347163839,0.6372861828324503,8.661978019534812,12,72.99270072992701,0.00951324742268413,100.0,0.7427166762783131,0.7178133040064814,4.097320095550118,183.93584777276783,0.7373853571649126,good,baseline,3B8D
1.4149160385131836,0.0,0.0,0.03446005392502947,0.005546094043488824,2.3309986881612637,21.602134421625337,12,71.59904534606206,0.006803353368076698,100.0,0.8952943476892847,0.7161938950713166,3.8505269440047294,180.05599659264382,0.8888823042282156,good,baseline,3B8D
1.6829490065574646,0.0,0.0,0.09941809499406408,0.004649456944745317,0.8132456584692823,8.783257868167926,12,72.11538461538461,0.007186388237652497,100.0,0.7611382415865348,0.7034032520718578,3.776654102635651,176.54471043439318,0.7557843704424525,good,baseline,3B8D
1.7859379053115845,0.0,0.0,0.0915193135744337,0.004800315216593313,1.014034412632919,12.69842423173576,12,70.75471698113208,0.013290130803027374,100.0,0.7977102891861243,0.7078860356180064,3.993617239332957,178.78330608219494,0.7920634094442877,good,baseline,3B8D
2.1459720134735107,47.485356493637646,48.0,0.8649397819010287,0.005769519636484319,0.010670701551668393,-1.971954248412452,7,73.71185366295391,0.09764282057695904,100.0,0.360096352667887,0.881393570547576,16.161582185109292,692.8203230275507,0.35692248656769593,poor,baseline,3B8D
0.0,100.0,0.0,0.0,0.0,0.0,0.0,0,,,0.0,0.2,0.4156921938167523,15.486355284572277,692.8203230275507,0.1991686156123665,poor,baseline,3B8D
0.0,100.0,0.0,0.0,0.0,0.0,0.0,0,,,0.0,0.2,0.4156921938167523,15.486355284572277,692.8203230275507,0.1991686156123665,poor,baseline,3B8D
0.0,100.0,0.0,0.0,0.0,0.0,0.0,0,,,0.0,0.2,0.4156921938167523,15.486355284572277,692.8203230275507,0.1991686156123665,poor,baseline,3B8D
0.0,100.0,0.0,0.0,0.0,0.0,0.0,0,,,0.0,0.2,0.4156921938167523,15.486355284572277,692.8203230275507,0.1991686156123665,poor,baseline,3B8D
0.0,100.0,0.0,0.0,0.0,0.0,0.0,0,,,0.0,0.2,0.4156921938167523,15.486355284572277,692.8203230275507,0.1991686156123665,poor,baseline,3B8D
0.0,100.0,0.0,0.0,0.0,0.0,0.0,0,,,0.0,0.2,0.4156921938167523,15.486355284572277,692.8203230275507,0.1991686156123665,poor,baseline,3B8D
0.0,100.0,0.0,0.0,0.0,0.0,0.0,0,,,0.0,0.2,0.4156921938167523,15.486355284572277,692.8203230275507,0.1991686156123665,poor,baseline,3B8D
0.0,100.0,0.0,0.0,0.0,0.0,0.0,0,,,0.0,0.2,0.4156921938167523,15.486355284572277,692.8203230275507,0.1991686156123665,poor,baseline,3B8D
0.0,100.0,0.0,0.0,0.0,0.0,0.0,0,,,0.0,0.2,0.4156921938167523,15.486355284572277,692.8203230275507,0.1991686156123665,poor,baseline,3B8D
0.0,100.0,0.0,0.0,0.0,0.0,0.0,0,,,0.0,0.2,0.4156921938167523,15.486355284572277,692.8203230275507,0.1991686156123665,poor,baseline,3B8D
0.0,100.0,0.0,0.0,0.0,0.0,0.0,0,,,0.0,0.2,0.4156921938167523,15.486355284572277,692.8203230275507,0.1991686156123665,poor,baseline,3B8D
0.0,100.0,0.0,0.0,0.0,0.0,0.0,0,,,0.0,0.2,0.4156921938167523,15.486355284572277,692.8203230275507,0.1991686156123665,poor,baseline,3B8D
0.0,100.0,0.0,0.0,0.0,0.0,0.0,0,,,0.0,0.2,0.4156921938167523,15.486355284572277,692.8203230275507,0.1991686156123665,poor,baseline,3B8D
0.0,100.0,0.0,0.0,0.0,0.0,0.0,0,,,0.0,0.2,0.4156921938167523,15.486355284572277,692.8203230275507,0.1991686156123665,poor,baseline,3B8D
0.0,100.0,0.0,0.0,0.0,0.0,0.0,0,,,0.0,0.2,0.4156921938167523,15.486355284572277,692.8203230275507,0.1991686156123665,poor,baseline,3B8D
0.0,100.0,0.0,0.0,0.0,0.0,0.0,0,,,0.0,0.2,0.4156921938167523,15.486355284572277,692.8203230275507,0.1991686156123665,poor,baseline,3B8D
0.0,100.0,0.0,0.0,0.0,0.0,0.0,0,,,0.0,0.2,0.4156921938167523,15.486355284572277,692.8203230275507,0.1991686156123665,poor,baseline,3B8D
0.0,100.0,0.0,0.0,0.0,0.0,0.0,0,,,0.0,0.2,0.4156921938167523,15.486355284572277,692.8203230275507,0.1991686156123665,poor,baseline,3B8D
0.0,100.0,0.0,0.0,0.0,0.0,0.0,0,,,0.0,0.2,0.4156921938167523,15.486355284572277,692.8203230275507,0.1991686156123665,poor,baseline,3B8D
0.0,100.0,0.0,0.0,0.0,0.0,0.0,0,,,0.0,0.2,0.4156921938167523,15.486355284572277,692.8203230275507,0.1991686156123665,poor,baseline,3B8D
0.0,100.0,0.0,0.0,0.0,0.0,0.0,0,,,0.0,0.2,0.4156921938167523,15.486355284572277,692.8203230275507,0.1991686156123665,poor,baseline,3B8D
0.0,100.0,0.0,0.0,0.0,0.0,0.0,0,,,0.0,0.2,0.4156921938167523,15.486355284572277,692.8203230275507,0.1991686156123665,poor,baseline,3B8D
0.0,100.0,0.0,0.0,0.0,0.0,0.0,0,,,0.0,0.2,0.4156921938167523,15.486355284572277,692.8203230275507,0.1991686156123665,poor,baseline,3B8D
0.0,100.0,0.0,0.0,0.0,0.0,0.0,0,,,0.0,0.2,0.4156921938167523,15.486355284572277,692.8203230275507,0.1991686156123665,poor,baseline,3B8D
0.0,100.0,0.0,0.0,0.0,0.0,0.0,0,,,0.0,0.2,0.4156921938167523,15.486355284572277,692.8203230275507,0.1991686156123665,poor,baseline,3B8D
0.0,100.0,0.0,0.0,0.0,0.0,0.0,0,,,0.0,0.2,0.4156921938167523,15.486355284572277,692.8203230275507,0.1991686156123665,poor,baseline,3B8D
0.0,100.0,0.0,0.0,0.0,0.0,0.0,0,,,0.0,0.2,0.4156921938167523,15.486355284572277,692.8203230275507,0.1991686156123665,poor,baseline,3B8D
0.0,100.0,0.0,0.0,0.0,0.0,0.0,0,,,0.0,0.2,0.4156921938167523,15.486355284572277,692.8203230275507,0.1991686156123665,poor,baseline,3B8D
0.0,100.0,0.0,0.0,0.0,0.0,0.0,0,,,0.0,0.2,0.4156921938167523,15.486355284572277,692.8203230275507,0.1991686156123665,poor,baseline,3B8D
0.0,100.0,0.0,0.0,0.0,0.0,0.0,0,,,0.0,0.2,0.4156921938167523,15.486355284572277,692.8203230275507,0.1991686156123665,poor,baseline,3B8D
0.0,100.0,0.0,0.0,0.0,0.0,0.0,0,,,0.0,0.2,0.4156921938167523,15.486355284572277,692.8203230275507,0.1991686156123665,poor,baseline,3B8D
0.0,100.0,0.0,0.0,0.0,0.0,0.0,0,,,0.0,0.2,0.4156921938167523,15.486355284572277,692.8203230275507,0.1991686156123665,poor,baseline,3B8D
0.0,100.0,0.0,0.0,0.0,0.0,0.0,0,,,0.0,0.2,0.4156921938167523,15.486355284572277,692.8203230275507,0.1991686156123665,poor,baseline,3B8D
0.0,100.0,0.0,0.0,0.0,0.0,0.0,0,,,0.0,0.2,0.4156921938167523,15.486355284572277,692.8203230275507,0.1991686156123665,poor,baseline,3B8D
0.0,100.0,0.0,0.0,0.0,0.0,0.0,0,,,0.0,0.2,0.4156921938167523,15.486355284572277,692.8203230275507,0.1991686156123665,poor,baseline,3B8D
0.0,100.0,0.0,0.0,0.0,0.0,0.0,0,,,0.0,0.2,0.4156921938167523,15.486355284572277,692.8203230275507,0.1991686156123665,poor,baseline,3B8D
0.0,100.0,0.0,0.0,0.0,0.0,0.0,0,,,0.0,0.2,0.4156921938167523,15.486355284572277,692.8203230275507,0.1991686156123665,poor,baseline,3B8D
0.0,100.0,0.0,0.0,0.0,0.0,0.0,0,,,0.0,0.2,0.4156921938167523,15.486355284572277,692.8203230275507,0.1991686156123665,poor,baseline,3B8D
0.0,100.0,0.0,0.0,0.0,0.0,0.0,0,,,0.0,0.2,0.4156921938167523,15.486355284572277,692.8203230275507,0.1991686156123665,poor,baseline,3B8D
0.0,100.0,0.0,0.0,0.0,0.0,0.0,0,,,0.0,0.2,0.4156921938167523,15.486355284572277,692.8203230275507,0.1991686156123665,poor,baseline,3B8D
0.0,100.0,0.0,0.0,0.0,0.0,0.0,0,,,0.0,0.2,0.4156921938167523,15.486355284572277,692.8203230275507,0.1991686156123665,poor,baseline,3B8D
0.0,100.0,0.0,0.0,0.0,0.0,0.0,0,,,0.0,0.2,0.4156921938167523,15.486355284572277,692.8203230275507,0.1991686156123665,poor,baseline,3B8D
0.0,100.0,0.0,0.0,0.0,0.0,0.0,0,,,0.0,0.2,0.4156921938167523,15.486355284572277,692.8203230275507,0.1991686156123665,poor,baseline,3B8D
0.0,100.0,0.0,0.0,0.0,0.0,0.0,0,,,0.0,0.2,0.4156921938167523,15.486355284572277,692.8203230275507,0.1991686156123665,poor,baseline,3B8D
0.0,100.0,0.0,0.0,0.0,0.0,0.0,0,,,0.0,0.2,0.4156921938167523,15.486355284572277,692.8203230275507,0.1991686156123665,poor,baseline,3B8D
0.0,100.0,0.0,0.0,0.0,0.0,0.0,0,,,0.0,0.2,0.4156921938167523,15.486355284572277,692.8203230275507,0.1991686156123665,poor,baseline,3B8D
0.0,100.0,0.0,0.0,0.0,0.0,0.0,0,,,0.0,0.2,0.4156921938167523,15.486355284572277,692.8203230275507,0.1991686156123665,poor,baseline,3B8D
0.0,100.0,0.0,0.0,0.0,0.0,0.0,0,,,0.0,0.2,0.4156921938167523,15.486355284572277,692.8203230275507,0.1991686156123665,poor,baseline,3B8D
0.0,100.0,0.0,0.0,0.0,0.0,0.0,0,,,0.0,0.2,0.4156921938167523,15.486355284572277,692.8203230275507,0.1991686156123665,poor,baseline,3B8D
3.122971773147583,78.63057968087254,78.9,0.8113262652325894,0.007043026845426407,0.012737905300787498,0.7336799326049137,3,74.63101683601573,0.0360248446757455,100.0,0.2472178225027254,0.6957920230591627,16.171794575071594,692.8203230275507,0.24549770061417087,poor,baseline,3B8D
2.7259891033172607,0.0,0.08,0.09218154996091159,0.0038129897646879333,0.9232177835248958,13.539628692295732,12,73.17073170731707,0.2668554806179894,90.9090909090909,0.7757173435003077,0.6906821518431087,3.431564926448523,174.0704676068346,0.7703596022599996,good,lift,3B8D
2.9139764308929443,0.0,0.06,0.13301936922813093,0.003287981077849875,0.7952347949395265,6.722571107465242,15,88.49557522123894,0.011144719971988064,100.0,0.7284303382252014,0.7222102901444467,3.3263766509036716,163.97355185609825,0.723169539366005,good,lift,3B8D
2.6249359101057053,0.0,0.0,0.101814080735387,0.0031205034946997254,1.0632479062818205,7.401388023367172,15,90.90992571097989,0.012133875534490716,100.0,0.763106625958815,0.7288172238161019,3.280500811546515,165.23975227267545,0.7575449734327452,good,lift,3B8D
2.92695689201355,0.0,0.27999999999999997,0.10357089233336553,0.003918010363790196,0.752652068471926,7.477839300640021,16,95.84664536741214,0.012314720089700163,100.0,0.7353324325753393,0.7256626832811973,3.4151282578405655,174.3124924989494,0.7299963995140762,good,lift,3B8D
2.787987470626831,0.0,0.0,0.1288523532689502,0.003865167045268857,0.7649706362806185,4.840129790328886,17,100.84062097484917,0.019002797373493627,100.0,0.6974830781127488,0.7658402701604441,4.150400531121772,193.6927259688981,0.6921414718230067,acceptable,lift,3B8D
2.6289780139923096,4.221369420319127,5.16,0.22830171500574983,0.003956544846130242,0.19789690534619497,4.713755373908743,17,105.82043497735532,0.07619436650090042,100.0,0.6217046274624454,1.203645282898044,15.839528660495102,692.8203230275507,0.6142215090404348,acceptable,lift,3B8D
0.0,100.0,0.0,0.0,0.0,0.0,0.0,0,,,0.0,0.2,0.4156921938167523,15.486355284572277,692.8203230275507,0.1991686156123665,poor,lift,3B8D
0.0,100.0,0.0,0.0,0.0,0.0,0.0,0,,,0.0,0.2,0.4156921938167523,15.486355284572277,692.8203230275507,0.1991686156123665,poor,lift,3B8D
0.0,100.0,0.0,0.0,0.0,0.0,0.0,0,,,0.0,0.2,0.4156921938167523,15.486355284572277,692.8203230275507,0.1991686156123665,poor,lift,3B8D
2.4069454669952393,8.382145021207837,9.28,0.4439933225524919,0.009516239893913083,0.09459047419659267,3.8674519334231823,16,103.80622837370242,0.05442550189962234,100.0,0.5821434030511857,1.1750723873885476,16.324793862542084,692.8203230275507,0.5753027966669273,acceptable,lift,3B8D
2.078906834125519,0.0,0.0,0.06566152375554722,0.006635672410381052,1.5303995503803496,11.558048353420627,16,95.84664536741214,0.02203768708928544,100.0,0.8410146887596086,0.7560800961055493,3.960056411052357,180.16403281036713,0.8346559440925732,good,greetings,3B8D
1.942954659461975,0.0,0.0,0.05831540506111542,0.0067143668771625364,1.6229331857452898,13.069329368150477,15,90.09009009009009,0.04103255089874112,100.0,0.8481183142309822,0.7945012995547255,4.061613571818057,179.2744463250384,0.8413800032026554,good,greetings,3B8D
1.8289210796356201,0.0,0.0,0.06626017734774217,0.0054659876402023905,1.2373932569358543,9.162192810471037,15,89.02077151335311,0.05448043518447641,100.0,0.8046018478393536,0.7510468407297239,4.0769097305451085,181.94902033095528,0.7985589110807032,good,greetings,3B8D
1.7079417705535889,0.0,0.0,0.058182807019154084,0.006571505787054036,1.4308664911996822,11.929678144147893,14,86.95652173913044,0.03967586022593322,100.0,0.833140617967232,0.7378051923681118,4.041587426216523,181.11957989178313,0.826993663228142,good,greetings,3B8D
2.2899515628814697,74.46980407998383,74.72,0.7385971523233578,0.004498991083160802,0.011824245691303211,-0.5348981651860378,5,84.98651771956858,0.29016111074596446,100.0,0.25280281028630913,0.7297858879577864,16.140695408612704,692.8203230275507,0.25095789105247895,poor,greetings,3B8D
0.0,100.0,0.0,0.0,0.0,0.0,0.0,0,,,0.0,0.2,0.4156921938167523,15.486355284572277,692.8203230275507,0.1991686156123665,poor,greetings,3B8D
0.0,100.0,0.0,0.0,0.0,0.0,0.0,0,,,0.0,0.2,0.4156921938167523,15.486355284572277,692.8203230275507,0.1991686156123665,poor,greetings,3B8D
1.9219470024108887,91.0725106039184,91.3,0.42161121333988516,0.0003733390653094969,0.011998942786751272,6.586193748107599,2,94.33962264150944,0.0,100.0,0.2852477728941847,0.6413842997572571,16.314927344222543,692.8203230275507,0.28341823846343417,poor,greetings,3B8D
1.643950879573822,0.0,0.0,0.03400955920303193,0.006721077233948836,2.905926574839279,17.848588035054405,14,84.03361344537815,0.02465939249447593,100.0,0.9244321006761482,0.7639513323341591,4.077087518809354,199.86802180382435,0.9173698893265082,good,gesticulate,3B8D
1.620950698852539,0.0,0.0,0.05569579136169464,0.005958182996138543,1.6288964539120474,14.822266290841647,14,86.95652173913044,0.005265720817612138,100.0,0.8485688334777697,0.7458594638503018,3.471445422069546,156.28541258096078,0.8422397025259916,good,gesticulate,3B8D
1.926900029182434,0.0,0.0,0.062357681179539784,0.006156354840364934,1.8845235344215618,14.751177086969783,15,86.83086202563459,0.024466725763821265,100.0,0.8670381833194369,0.7539127409340626,3.563531072407644,164.24388981925375,0.8605014719866285,good,gesticulate,3B8D
1.872985988855362,0.0,0.0,0.048697415094605186,0.006239510264772985,2.587500363150738,17.924351250899544,14,86.45533141210375,0.022013211860375744,100.0,0.9092630671399138,0.7325088317286675,3.879252027322938,177.92951500904536,0.902602634869467,good,gesticulate,3B8D
1.7879305481910706,0.0,0.0,0.05489723176520931,0.006181884042350543,1.7894566772408158,15.762108571300761,13,81.9696607740086,0.014456610314963987,100.0,0.8603632150966933,0.7111200140820816,3.942587558208811,181.31106398881974,0.8542450000803407,good,gesticulate,3B8D
2.1219469606876373,0.0,0.0,0.06124327475690216,0.006176652997548074,1.9967197235234702,15.319166242997923,14,79.15567282321899,0.0161748169025853,100.0,0.8746181279054003,0.7114215503404865,3.6502280460119145,167.94891148235925,0.8683959060602967,good,gesticulate,3B8D
1.971932739019394,0.0,0.0,0.05839338116773824,0.006296574904231326,1.9033586631244235,16.73982668468799,13,78.125,0.006156257787024113,100.0,0.8683332263001615,0.7446297850882486,3.694684916444026,171.2074450628378,0.8618673584633127,good,gesticulate,3B8D
2.2149729281663895,0.0,0.0,0.05461162256965607,0.005869740795970086,1.5507878171040737,18.420206361478613,13,77.62083277547194,0.021783225342178074,100.0,0.8425979626434497,0.7264471649993468,3.7730327415524583,170.2296342268959,0.8364769336314841,good,gesticulate,3B8D
1.8299457430839539,0.0,0.0,0.15276693527872845,0.006172393000351559,1.7501521094929164,18.059120792221574,13,77.0249960449296,0.01608218883682304,100.0,0.8575361997909299,0.722677278780057,4.000513880207945,189.22635237411544,0.8513389805177268,good,gesticulate,3B8D
1.7239395380020142,0.0,0.0,0.042198133908208695,0.006134163359947061,2.2235202673636105,18.574334708903283,13,77.82114258798197,0.012625488288640515,100.0,0.8889560776605698,0.737274855728004,4.281183744645197,191.95980745400115,0.8824020280215125,good,gesticulate,3B8D
2.181952714920044,32.17531811755201,32.84,0.7930561971837828,0.005618562880034537,0.018933238499820156,-1.5021323896217704,10,80.64516129032258,0.06190947237398294,100.0,0.42186266247842275,0.9845397737691259,16.046580371367924,692.8203230275507,0.4177092567756413,acceptable,gesticulate,3B8D
0.0,100.0,0.0,0.0,0.0,0.0,0.0,0,,,0.0,0.2,0.4156921938167523,15.486355284572277,692.8203230275507,0.1991686156123665,poor,gesticulate,3B8D
0.0,100.0,0.0,0.0,0.0,0.0,0.0,0,,,0.0,0.2,0.4156921938167523,15.486355284572277,692.8203230275507,0.1991686156123665,poor,gesticulate,3B8D
0.0,100.0,0.0,0.0,0.0,0.0,0.0,0,,,0.0,0.2,0.4156921938167523,15.486355284572277,692.8203230275507,0.1991686156123665,poor,gesticulate,3B8D
0.0,100.0,0.0,0.0,0.0,0.0,0.0,0,,,0.0,0.2,0.4156921938167523,15.486355284572277,692.8203230275507,0.1991686156123665,poor,gesticulate,3B8D
2.273953914642334,66.30983639668754,66.64,0.7967215649905994,0.004618540358420621,0.011505141943657099,-1.3990715810300784,5,84.83296640183784,0.16050826589888592,100.0,0.28525083576059423,0.816396550106147,16.647438096374966,692.8203230275507,0.28292205777829577,poor,gesticulate,3B8D
2.0969541668891907,0.0,0.0,0.04802107596312698,0.005287314777651763,2.0874289227343548,15.379886231840594,14,79.57559681697613,0.02989192298619641,100.0,0.8805103758682153,0.7428807569348628,3.6609065546580664,173.92175814136135,0.8739692337230756,good,walk_before,3B8D
1.6479362845420837,0.0,0.0,0.030053628379349787,0.0066401269287644235,2.8091329763962642,20.193742796350563,13,81.74386920980926,0.0331410505940863,100.0,0.920066061329144,0.68665822764957,4.037670901746068,184.62415418676082,0.9137483520192161,good,walk_before,3B8D
1.6929687857627869,0.0,0.0,0.032754367040915944,0.006977623579431424,2.614143950287611,20.919798354006765,13,77.92680952123928,0.04423851035219862,100.0,0.9106225788425257,0.7178300424185956,4.174728592273192,185.35045858694244,0.9040858563985471,good,walk_before,3B8D
1.99294051527977,0.0,0.0,0.03390167327839723,0.007630065182100917,2.9096963054834393,19.694029414487037,13,77.02194977259245,0.01351498675718403,100.0,0.9245979394700106,0.7256903539403005,4.266938237452465,192.01035360087366,0.9178882214105459,good,walk_before,3B8D
1.7839452922344208,0.0,0.0,0.06520323909555484,0.006178778451007734,1.475845192465457,17.94073115579285,12,74.62686567164178,0.056992811048377126,100.0,0.8367284445901715,0.7683588608980184,4.351170692335061,192.1506830938416,0.8302993674445087,good,walk_before,3B8D
1.7039567828178406,0.0,0.0,0.04011612260000598,0.007080890201949693,2.273261227640892,20.318018626735743,13,74.44352082756072,0.03632734350851982,100.0,0.8919255892241376,0.7036507798293773,4.053219447976677,181.64561155627274,0.8856495478600641,good,walk_before,3B8D
1.526900053024292,0.0,0.0,0.04639068611950145,0.006465184446028309,1.754749907482487,18.33036467638417,13,75.47468354430379,0.060595224710448696,100.0,0.8578689264835286,0.7504909975854942,4.079532039581494,181.50037433590117,0.8514306974191864,good,walk_before,3B8D
1.4969542026519775,0.0,0.0,0.06348189757809684,0.007495593454641284,2.0175771434794143,19.934473593919055,13,75.28337531486146,0.0381248473186567,100.0,0.8759916518665392,0.7288009152893082,3.9678503138147088,176.4267134146678,0.8696074166898778,good,walk_before,3B8D
1.9239395260810852,0.0,0.0,0.03736453318165477,0.005113855083133975,1.3071996347019241,9.257110901686357,13,80.75384749152246,0.006055088664751701,100.0,0.8118871066303144,0.8238463008002369,3.5953741200363685,174.08334003201875,0.8051984047356665,good,walk_before,3B8D
2.0899514853954315,0.0,0.0,0.07799404110039468,0.004984168242077567,1.5575443821584514,11.9874948732365,15,81.63280417012203,0.13130670323509708,100.0,0.8431204043088467,0.8928138598943882,3.6786969275596904,181.18565340399368,0.8355929084835797,good,walk_before,3B8D
2.056931287050247,0.0,0.0,0.03979329084819693,0.0043569346418088,1.4402928423748471,7.478469994045074,15,87.08291203235592,0.05957064682123092,100.0,0.7960735847325735,1.0218321827685812,3.9564308812790685,174.9940962663371,0.7879390486452565,good,walk_before,3B8D
2.3179618790745735,0.0,0.0,0.04502521012883416,0.0038539836776210435,1.168570522679231,6.370553423421162,15,90.9090909090909,0.06162938908915467,100.0,0.7568431138770674,1.162324688183814,4.286243483013307,192.7981953971165,0.7480461395136551,good,walk_before,3B8D
2.2129234075546265,0.0,0.0,0.03771966649570421,0.004979980152191944,1.3534802864188629,8.36919371634595,15,88.75739644970413,0.06832100106952115,100.0,0.8023935472120886,1.0663569166921683,5.03193173303461,247.04660735776073,0.7938371681223008,good,walk_before,3B8D
2.618957996368408,0.0,0.1,0.08692171776508496,0.004349246539133017,0.835245230303094,6.919216679151628,14,87.97653958944281,0.055430705930924876,100.0,0.7350195195154313,1.0610186067886036,5.76917977986865,265.4273108250312,0.7272208256498445,good,walk_before,3B8D
2.454995632171631,0.0,0.12,0.04981842356726581,0.005346918517700231,1.2143791877140804,8.07677110348805,15,88.4963452836756,0.054588876997573206,100.0,0.7861243483924636,1.0949289057619023,4.875145492186541,265.2042811196922,0.7775168456666821,good,walk_before,3B8D
2.37591789662838,0.0,0.0,0.08229451428616952,0.007312996831885491,1.4728053955819358,8.73128200884075,16,89.02077151335311,0.19075659070813558,100.0,0.8174567260585467,0.9787395000205008,3.498360141571794,160.0356459991124,0.8094559541850374,good,walk_before,3B8D
2.264958530664444,0.0,0.0,0.038219539725228374,0.004727733477493834,1.2915861662753954,7.132782198308467,15,89.41897654584221,0.07396081438086972,100.0,0.7787206554049289,0.9802710956722878,4.229251967184081,212.50433891088528,0.7710870819039645,good,walk_before,3B8D
2.1059493124485016,0.0,0.0,0.031391464338010586,0.004429421018149152,1.6951345630549377,8.16964627962692,15,90.36144578313252,0.0449835492716161,100.0,0.8260579666773537,1.0250327225850022,4.4340666523972505,213.14016399196245,0.8175906022113905,good,walk_before,3B8D
2.2549386620521545,0.0,0.0,0.036394341659161604,0.0043057646244898055,1.4056407421534531,7.881859482402497,16,89.82035928143712,0.19384741696416308,100.0,0.7993352426096836,1.088899768055413,3.9479737012211604,176.10336663669867,0.7906312830069215,good,walk_before,3B8D
2.3009391874074936,0.0,0.0,0.04088329381294841,0.004190271931055719,1.0627559313043873,6.106694176840101,15,89.55223880597015,0.07635472378778153,100.0,0.7436427151392229,1.178941238601521,4.086173303385637,182.84410434078018,0.7348756045025906,good,walk_before,3B8D
2.15690279006958,0.0,0.0,0.038951964717346785,0.003989099638865326,1.1611961648645113,5.338872732599812,17,100.0,0.23379352150616306,100.0,0.7407313622924715,1.1644900055239278,3.917836508630267,175.48940134250913,0.7321056196107943,good,walk_before,3B8D
2.1249074935913086,0.0,0.0,0.040036935703188635,0.004032353023233899,0.9720170602477595,3.4564301931133814,17,95.4005814892586,0.2540084743003654,100.0,0.6957837671472241,1.1982461714662753,4.44918730051735,221.78011692005657,0.6874465647956987,acceptable,walk_before,3B8D
2.4489609450101852,0.0,0.0,0.03487444164245335,0.004372718801312646,1.5225381066564447,6.587813067419363,15,89.28571428571428,0.07343620528928792,100.0,0.7892186819626692,1.1741257248435883,5.241212827059725,240.49937369350565,0.779952262392474,good,walk_before,3B8D
2.25795616209507,0.0,0.0,0.04545834887615562,0.004672185066122542,1.359946654268793,7.295372514521917,15,90.36472509526402,0.07963324473041458,100.0,0.7868167604022248,1.2035884282438116,5.2129147041066695,242.00372978788536,0.7773467249225409,good,walk_before,3B8D
2.0949615836143494,0.0,0.0,0.03723663242052358,0.0037766244444540974,1.1799166480232466,6.796081241338385,15,91.88382957167784,0.0668969387395256,100.0,0.7642031416016549,1.113868235222943,4.322941446020046,205.5481078093887,0.7556909255547782,good,walk_before,3B8D
1.792940378189087,0.0,0.0,0.03178822708942842,0.00727674438110058,2.5841759640316284,17.687476690922892,15,87.97653958944281,0.03515043808131621,100.0,0.9090922495561782,0.7770334060476973,3.864752721569166,179.16394562536735,0.9020282990853361,good,walk_before,3B8D
1.670936405658722,0.0,0.0,0.05182978270071847,0.006888708181404362,2.0496986044627254,16.688706218658965,14,87.97653958944281,0.010510017766749428,100.0,0.8780851239500818,0.7578214697469587,3.866950501090971,179.0662416135327,0.8714308063581339,good,walk_before,3B8D
1.6279531717300415,0.0,0.0,0.041611861947842194,0.007457828751015101,2.5342867739366612,17.717796144045852,15,88.75739644970413,0.006209099465554386,100.0,0.9064969713185222,0.7796034577039475,3.484725515006031,162.72943637177667,0.8994298895861415,good,walk_before,3B8D
2.357927590608597,0.0,0.06,0.05703127644676249,0.004583709348693189,0.7771225394702898,9.851425932567459,17,86.45533141210375,0.2420955332533297,100.0,0.7736708445938015,0.845692408335957,3.514922810710882,162.26360317800015,0.7671279689955631,good,walk_before,3B8D
2.289894536137581,0.0,0.0,0.06416649768946651,0.003177772379045615,0.9313393122076787,4.887275852030123,15,89.1532428995337,0.07345375362985984,100.0,0.7135620928373266,1.4930766067739956,4.273574891325361,167.25947367212635,0.7029080641543656,good,walk_before,3B8D
2.4569883346557617,87.23490203999192,87.36,0.5578258504229633,0.005233443632965904,0.0124297334160781,3.5703771127536665,3,111.0705003248863,0.11151736725499568,100.0,0.25560881884048764,0.6569076242689658,14.761097894838917,692.8203230275507,0.25392970502122064,poor,walk_before,3B8D
0.0,100.0,0.0,0.0,0.0,0.0,0.0,0,,,0.0,0.2,0.4156921938167523,15.486355284572277,692.8203230275507,0.1991686156123665,poor,walk_before,3B8D
0.0,100.0,0.0,0.0,0.0,0.0,0.0,0,,,0.0,0.2,0.4156921938167523,15.486355284572277,692.8203230275507,0.1991686156123665,poor,walk_before,3B8D
0.0,100.0,0.0,0.0,0.0,0.0,0.0,0,,,0.0,0.2,0.4156921938167523,15.486355284572277,692.8203230275507,0.1991686156123665,poor,walk_before,3B8D
0.0,100.0,0.0,0.0,0.0,0.0,0.0,0,,,0.0,0.2,0.4156921938167523,15.486355284572277,692.8203230275507,0.1991686156123665,poor,run,3B8D
0.0,100.0,0.0,0.0,0.0,0.0,0.0,0,,,0.0,0.2,0.4156921938167523,15.486355284572277,692.8203230275507,0.1991686156123665,poor,run,3B8D
0.0,100.0,0.0,0.0,0.0,0.0,0.0,0,,,0.0,0.2,0.4156921938167523,15.486355284572277,692.8203230275507,0.1991686156123665,poor,run,3B8D
0.0,100.0,0.0,0.0,0.0,0.0,0.0,0,,,0.0,0.2,0.4156921938167523,15.486355284572277,692.8203230275507,0.1991686156123665,poor,run,3B8D
0.0,100.0,0.0,0.0,0.0,0.0,0.0,0,,,0.0,0.2,0.4156921938167523,15.486355284572277,692.8203230275507,0.1991686156123665,poor,run,3B8D
0.0,100.0,0.0,0.0,0.0,0.0,0.0,0,,,0.0,0.2,0.4156921938167523,15.486355284572277,692.8203230275507,0.1991686156123665,poor,run,3B8D
0.0,100.0,0.0,0.0,0.0,0.0,0.0,0,,,0.0,0.2,0.4156921938167523,15.486355284572277,692.8203230275507,0.1991686156123665,poor,run,3B8D
0.0,100.0,0.0,0.0,0.0,0.0,0.0,0,,,0.0,0.2,0.4156921938167523,15.486355284572277,692.8203230275507,0.1991686156123665,poor,run,3B8D
0.0,100.0,0.0,0.0,0.0,0.0,0.0,0,,,0.0,0.2,0.4156921938167523,15.486355284572277,692.8203230275507,0.1991686156123665,poor,run,3B8D
0.0,100.0,0.0,0.0,0.0,0.0,0.0,0,,,0.0,0.2,0.4156921938167523,15.486355284572277,692.8203230275507,0.1991686156123665,poor,run,3B8D
0.0,100.0,0.0,0.0,0.0,0.0,0.0,0,,,0.0,0.2,0.4156921938167523,15.486355284572277,692.8203230275507,0.1991686156123665,poor,run,3B8D
0.0,100.0,0.0,0.0,0.0,0.0,0.0,0,,,0.0,0.2,0.4156921938167523,15.486355284572277,692.8203230275507,0.1991686156123665,poor,run,3B8D
0.0,100.0,0.0,0.0,0.0,0.0,0.0,0,,,0.0,0.2,0.4156921938167523,15.486355284572277,692.8203230275507,0.1991686156123665,poor,run,3B8D
0.0,100.0,0.0,0.0,0.0,0.0,0.0,0,,,0.0,0.2,0.4156921938167523,15.486355284572277,692.8203230275507,0.1991686156123665,poor,run,3B8D
0.0,100.0,0.0,0.0,0.0,0.0,0.0,0,,,0.0,0.2,0.4156921938167523,15.486355284572277,692.8203230275507,0.1991686156123665,poor,run,3B8D
0.0,100.0,0.0,0.0,0.0,0.0,0.0,0,,,0.0,0.2,0.4156921938167523,15.486355284572277,692.8203230275507,0.1991686156123665,poor,run,3B8D
3.4949615001678467,79.31730963441728,80.46,0.7162872857627013,0.013870936277618571,0.07140969393404298,2.0778435990842743,6,150.0,0.096796458144266,100.0,0.2687526557400467,1.6734431718932063,17.48975580962921,692.8203230275507,0.2642552327732832,poor,run,3B8D
3.7119839191436768,0.0,3.2,0.08606921306723381,0.012209339598030337,0.702314200835501,0.4737428506515089,23,154.10552935907907,0.27921616124515414,100.0,0.6196820670614194,4.955853166807675,12.356611261875992,252.22213365662495,0.5889715337168168,acceptable,run,3B8D
3.7109591960906982,0.0,4.22,0.06372906035877693,0.01318944535903003,0.8608144914740457,0.22887652900007227,26,163.04347826086956,0.2491032011798651,100.0,0.628787429265679,5.197768907195738,12.407773700895492,180.28629905119715,0.596104511774952,acceptable,run,3B8D
3.7119839191436768,0.0,4.8,0.122845590424895,0.019263092875749035,0.9072601934289543,0.08261139526901529,24,163.9344262295082,0.2803949983166825,100.0,0.6296968924310254,5.038855634691914,12.235721185504284,185.4946750055501,0.5979673750852849,acceptable,run,3B8D
3.7119839191436768,0.0,3.1399999999999997,0.09223860628549894,0.01583400207706749,0.6634102321081538,0.2464682062778012,25,164.84014129154968,0.2704367877138041,100.0,0.6126973974406332,5.025274723976119,12.039021536254221,174.69907398073005,0.5819076699925896,acceptable,run,3B8D
3.7119839191436768,0.0,3.56,0.10132715043686928,0.015591044633804015,0.6530942932092823,0.28905418585411047,23,161.33229247983348,0.3192350423818326,100.0,0.6115127075117258,5.042943462361569,12.464658737150028,303.7951844182585,0.580674467406753,acceptable,run,3B8D
3.7119839191436768,0.0,3.7800000000000002,0.06827247527210517,0.01823211315071228,1.139117594044831,0.784265880860739,24,167.5977653631285,0.27834284860917013,100.0,0.6629395883588352,4.429845354490771,12.01146138310116,305.39236970617964,0.6335723898008411,acceptable,run,3B8D
3.709991216659546,0.0,0.88,0.12166695504091915,0.004947189007822492,1.0002132891693638,0.68096565987998,24,163.04347826086956,0.32098188108322734,100.0,0.6549274298579202,2.778964244378265,8.081942697504386,302.18863852733307,0.636727230755543,acceptable,run,3B8D
3.3759748935699463,0.0,0.16,0.1587779507992748,0.008002192793128214,0.9188609896100627,1.0069912453690746,23,142.51861882193634,0.20434936090082909,100.0,0.6539015132020413,2.835507915538555,7.676298116730358,177.8397288524141,0.6353600840353709,acceptable,run,3B8D
3.6979787349700928,0.0,0.13999999999999999,0.11978405077999636,0.005904061159024683,1.0518876136582809,3.0309328739860053,23,140.18691588785046,0.11931816894874261,100.0,0.696264024264498,2.307883592037744,6.553372076818403,204.1317775966921,0.680195061091236,acceptable,run,3B8D
2.9589524269104004,0.0,0.24,0.24859883718858455,0.0038327699336487523,0.28623653656805464,2.483325701527967,23,135.44087073498838,0.06592510095287074,100.0,0.6153069959807554,1.3368615095048364,6.353913062093199,197.23342419664297,0.6070811935861983,acceptable,run,3B8D
3.721946954727173,4.241567360129267,9.46,0.6492891113352736,0.0020215170710965323,0.05781392657527824,0.7874399659713447,19,130.43478260869566,0.4560072384083749,100.0,0.5401891418288289,1.040764329360525,4.028014621866276,175.86881479490825,0.5345670459295958,acceptable,run,3B8D
3.7119839191436768,0.0,0.12,0.25307908006681384,0.007385497627138629,0.4812879650681984,0.4436409008363915,21,128.2051282051282,0.16554169456913537,100.0,0.604134711025702,4.069718243497735,11.75913500599435,175.46988363747784,0.5795481304757867,acceptable,run,3B8D
3.471961259841919,0.0,0.98,0.06289987946359583,0.006408684422494495,0.5918573906332655,0.49000368485012435,23,152.34707292552778,0.26009269253327594,100.0,0.6138196940600857,5.491962043431933,12.402555523066926,320.9326206369445,0.5801089494471958,acceptable,run,3B8D
3.2989466190338135,0.0,2.54,0.12726829409179802,0.010706244444608314,0.5593983055347577,0.7334735766313929,23,137.9317634126749,0.23093155832646306,100.0,0.6112224907019326,5.581104210892887,12.325111723164014,280.9483571142223,0.5771095265354427,acceptable,run,3B8D
3.1669795513153076,0.0,1.18,0.06655697029890176,0.006388048924465187,0.5536010215389705,1.0855007327340722,23,139.54695917440125,0.21816067648019544,100.0,0.6186626695185492,5.28962113699524,11.49488642699671,193.35508144538645,0.585937758184997,acceptable,run,3B8D
3.7119839191436768,0.0,2.4,0.05313133794235657,0.009825889829114967,0.6664125362775651,0.4877851813825256,22,141.50943396226415,0.24461635085558178,100.0,0.6180831041161395,5.3077988066506645,11.693579446519383,187.610243887447,0.5852764964917537,acceptable,run,3B8D
3.709991216659546,0.0,2.62,0.0711690137522203,0.007067849499428491,0.6721805910076303,0.42691840934366265,24,144.92753623188406,0.20986072326483693,100.0,0.6172791249161781,5.179538331682908,11.180366537788904,138.14569109732722,0.5853069160276678,acceptable,run,3B8D
3.7119839191436768,0.0,5.26,0.09603836149831568,0.011584469750478657,0.9154803028869904,0.009728662783886843,23,166.2062615101289,0.26424252805579224,100.0,0.6284342345465311,5.064777654937714,11.649173285940833,313.86915458322585,0.5966054378592396,acceptable,run,3B8D
3.535952091217041,0.0,2.74,0.15735129759410363,0.012544689007734913,0.5847986811576377,0.5577760778637169,23,144.92753623188406,0.23314074547235103,100.0,0.6106368751304249,4.916130171637251,11.593066982016195,280.66418914700876,0.5806171714729951,acceptable,run,3B8D
3.7139766216278076,0.0,4.9,0.2516847348884679,0.006591885123795808,0.3585462269152937,0.2332725356173171,25,164.4144144144144,0.23033823438389184,100.0,0.5793839655024176,4.864810757713088,10.989542728248734,228.44205389564982,0.5511980320201912,acceptable,run,3B8D
3.71295166015625,0.0,4.34,0.06570214474186302,0.009340910373492271,0.7242335614485511,0.2100133802277937,26,154.63917525773195,0.1482914858895051,100.0,0.6155186700078681,5.116265800288946,11.365364272018782,198.15436768448885,0.5840270987998621,acceptable,run,3B8D
3.7119839191436768,0.0,3.4799999999999995,0.10174709230321455,0.011385290152205614,0.5017687075023082,0.5506036174051769,23,148.1490513583378,0.2822711873307375,100.0,0.6010132086143941,4.900234046969106,11.515192251459704,203.00899076352619,0.5715621547390901,acceptable,run,3B8D
3.709991216659546,0.0,2.88,0.0836355759355243,0.011202123972693401,0.6508514247063527,0.550884942648028,24,152.28426395939087,0.2831636716961559,100.0,0.6165861502290367,4.7938550678459455,10.752768580420543,206.88851706928963,0.5870279038186459,acceptable,run,3B8D
3.7119839191436768,0.0,3.26,0.08150203681604541,0.010933426033479837,0.7296864702742781,0.49244597065037565,23,159.68742036864012,0.34034528862063507,100.0,0.6224296436482659,4.481523524330617,10.402011444496383,172.44938070328243,0.5945353127457617,acceptable,run,3B8D
3.7109591960906982,0.0,2.86,0.048508932278286225,0.01122459530514746,0.6600601280645315,0.4256911339168683,23,153.0612244897959,0.26241794233852983,100.0,0.615626516357451,4.766264827400973,10.607124246216548,224.77795331379923,0.586284126240152,acceptable,run,3B8D
3.7139766216278076,0.0,4.24,0.0752839970469408,0.0105833786523207,0.4522113302060102,0.3373275255023467,22,148.5148514851485,0.31875724860955934,100.0,0.5914616304222612,4.744032049638058,10.990670385703547,253.03826300458755,0.5634025011137173,acceptable,run,3B8D
3.7109591960906982,0.0,4.7,0.08669432051067508,0.014812114488157188,0.48366551619232784,0.14318595017644942,22,148.5148514851485,0.26041821716718644,100.0,0.5906995968665167,4.584529009945171,10.582552906580185,249.6665590672561,0.5636188024865421,acceptable,run,3B8D
3.7119839191436768,0.08079175924055745,6.2,0.09698540129086942,0.007198981162626065,0.37099030309196346,0.17120166385286995,22,150.0,0.29632007614272354,100.0,0.5769175073538343,4.608608149982946,10.355538085178482,208.49137461201366,0.550329640091247,acceptable,run,3B8D
3.71295166015625,0.10098969905069682,4.82,0.14510173849585034,0.011234492244840806,0.40699852068054027,0.12746316607294528,23,177.52100840336135,0.4395209615890919,100.0,0.5825219470668713,4.673047123970475,11.317539069563123,362.93941137234964,0.555300421972966,acceptable,run,3B8D
3.7139766216278076,0.0,4.88,0.18450329907287624,0.01000586497712478,0.4848540945999741,-0.012237746741408984,24,150.7537688442211,0.2599752675257153,100.0,0.5883076214605296,4.772965469405519,12.21811112799581,402.22691434740375,0.5602279018343376,acceptable,run,3B8D
3.7089664936065674,0.0,6.140000000000001,0.10940957346874235,0.00961647566126918,0.30218285334937994,0.11668129187628562,20,133.33333333333334,0.3549876549839238,100.0,0.5695867190076964,4.416606508267891,10.446157613648563,240.70097965198468,0.544430314905773,acceptable,run,3B8D
3.709991216659546,0.0,3.34,0.08394483704096749,0.009182061758359138,0.5142708213170221,0.4451008362100879,25,163.4889522451889,0.24377730881714618,100.0,0.600925699999073,4.208476170441245,9.896316517351464,231.0670404059034,0.5756358851125547,acceptable,run,3B8D
3.636948347091675,0.0,4.14,0.06389600775747578,0.010252520649699384,0.5078152935935818,0.5143855186712218,25,154.63917525773195,0.20913640962835994,100.0,0.5997377940236305,4.1843394853477385,9.644069136539912,185.65405673411533,0.5746427286997462,acceptable,run,3B8D
3.6549956798553467,0.0,4.5,0.06555525441520291,0.009833105477294614,0.38114142040812343,0.26311807747819627,23,150.37688442211055,0.27931998126610175,100.0,0.5828571621168358,4.646286785558952,11.19495906326037,357.37045041660264,0.5557759468147173,acceptable,run,3B8D
3.5159690380096436,0.0,6.94,0.12486844962282646,0.008553951634051295,0.3348071485072106,0.16813875644245746,22,150.0,0.2806605886602719,100.0,0.5719844834427951,4.666071094702848,11.284763474895943,385.7908169885004,0.5452952807946854,acceptable,run,3B8D
3.4659833908081055,0.0,6.9,0.1561122189211383,0.0068520248727399514,0.24713795557882132,0.005198678996417794,24,156.25,0.2597237473535867,100.0,0.5609360215785957,4.4943928570932625,10.343781473301423,234.785726783523,0.5357253530919042,acceptable,run,3B8D
3.436948299407959,0.0,5.76,0.05812765867563644,0.006452116715921099,0.301576771104219,0.16628437710836508,23,156.25423866749856,0.26541475749713106,100.0,0.5710307666442425,4.573089910324754,10.229095302243538,239.62176331486296,0.5449170162699845,acceptable,run,3B8D
3.526956796646118,0.0,4.54,0.09698317057529161,0.005994746794973886,0.3380478622896016,0.033182627212528626,23,154.24266455194288,0.25659791491773903,100.0,0.5750801712771276,4.719631060429796,10.45011449398246,200.94423999680677,0.5479385088911595,acceptable,run,3B8D
3.7109591960906982,0.060593819430418104,6.88,0.09027147294277332,0.007259695512613225,0.272673617804843,0.13532599268858636,22,154.63917525773195,0.31204276983543094,100.0,0.5653412241834461,4.6858775467405085,10.603819581042405,210.47885242604985,0.538850026696966,acceptable,run,3B8D
3.7119839191436768,0.0,6.9,0.07188545993647792,0.00581035217722808,0.18641342581479292,0.0816884842790584,22,153.0612244897959,0.3044481851976641,100.0,0.5560427147678536,4.7033096478880285,10.669007963354042,208.71268931827657,0.5298903041177986,acceptable,run,3B8D
3.4709932804107666,0.24237527772167242,6.7,0.08325994369207167,0.005756143061399773,0.25871431676766093,0.031068926277546538,23,155.44458762886597,0.30090978613457575,100.0,0.5623887698603333,4.543251928853342,10.417587675591387,239.3823623477973,0.536838031225999,acceptable,run,3B8D
3.56396222114563,0.0,8.0,0.07174068269023169,0.005626712800315337,0.24573144160197966,-0.15608336274357404,21,152.06344317831844,0.3352352703404597,100.0,0.5585183348305827,4.7057768178183705,10.6450136105849,242.90412965846042,0.5322357085068599,acceptable,run,3B8D
3.542954683303833,0.0,7.32,0.0522791420112498,0.005676387458638707,0.22712129688634874,-0.09533368783340723,20,135.74660633484163,0.31658302686472545,100.0,0.5580288369254344,4.443454992486033,9.863873737122196,208.11007497013085,0.5332330767115594,acceptable,run,3B8D
3.202960252761841,0.0,2.82,0.07704725842680855,0.00484109070185741,0.3989318629986966,0.6069514473453967,24,164.83516483516485,0.3138099609394001,100.0,0.593123966208439,3.7412951617587913,9.184303840212575,194.68565393978042,0.5709334479574508,acceptable,run,3B8D
3.71295166015625,0.0,1.58,0.20814001614101654,0.0016279313830845962,0.24605400396918667,0.6190066180230134,23,151.51901640180597,0.24166825255818727,100.0,0.5806754746026807,2.6875520752698874,6.858302230243444,240.3303435177554,0.565069518834413,acceptable,run,3B8D
3.321946859359741,0.08079175924055745,9.02,0.08365658237663146,0.003835323122389762,0.18107198202683802,0.08181084508765668,22,148.5148514851485,0.3097095746398695,100.0,0.5511108211382478,4.705059862286291,11.560069984439313,249.7736026358462,0.5251807270961557,acceptable,run,3B8D
3.3759748935699463,0.0,5.96,0.08487412090368873,0.005193905729631764,0.2266439911301797,0.03346142229475735,22,152.28426395939087,0.32310096945618794,100.0,0.5612032996430304,4.558104860672561,10.224592132172855,205.6953772562371,0.5356230647637467,acceptable,run,3B8D
3.610987663269043,0.0,8.76,0.23031219593249794,0.0047251311085970485,0.20195188164120836,0.11901262647554756,22,146.34146341463415,0.3097147244020817,100.0,0.554429927129515,4.628088943653776,10.28375554126179,157.29222469863342,0.5287704169717262,acceptable,run,3B8D
3.3229715824127197,48.212482326802665,53.839999999999996,0.8778472629423275,0.0045208840228383555,0.053413987083628836,-1.4699433255725423,14,152.28426395939087,0.20614148793995912,100.0,0.35123586970783516,2.8528252032132366,17.329729206723954,692.8203230275507,0.3412157242940848,poor,run,3B8D
0.0,100.0,0.0,0.0,0.0,0.0,0.0,0,,,0.0,0.2,0.4156921938167523,15.486355284572277,692.8203230275507,0.1991686156123665,poor,run,3B8D
0.0,100.0,0.0,0.0,0.0,0.0,0.0,0,,,0.0,0.2,0.4156921938167523,15.486355284572277,692.8203230275507,0.1991686156123665,poor,run,3B8D
0.0,100.0,0.0,0.0,0.0,0.0,0.0,0,,,0.0,0.2,0.4156921938167523,15.486355284572277,692.8203230275507,0.1991686156123665,poor,run,3B8D
0.0,100.0,0.0,0.0,0.0,0.0,0.0,0,,,0.0,0.2,0.4156921938167523,15.486355284572277,692.8203230275507,0.1991686156123665,poor,run,3B8D
3.71295166015625,47.364168854776814,50.12,0.9250945325481894,0.0022051980374317597,0.027593550961224244,-1.3815697178316533,13,148.15627743634766,0.1470469110642387,100.0,0.3577909395749739,2.232912275244957,16.975238286184126,692.8203230275507,0.34980178176549004,poor,run,3B8D
3.7159690856933594,0.38376085639264795,13.66,0.2194245285822533,0.0018527394671671962,0.13306052141646102,-0.7188059399252653,23,151.1344601796863,0.2820877645025797,100.0,0.535209811918403,4.120279486511544,9.77770031377328,175.8371653294804,0.513157671828132,acceptable,run,3B8D
3.7159690856933594,0.5453443748737629,20.96,0.14579050448397832,0.0020993956326832517,0.1549929874316595,-0.9425997628080478,23,162.16216216216216,0.26103535946376133,100.0,0.5224748344433786,4.913573798339162,11.044331099052874,168.09132619793283,0.4968026478752528,acceptable,run,3B8D
3.7139766216278076,0.3635629165825086,14.56,0.09511318947725646,0.0029556969634378346,0.16196030661738783,-0.6444629112162121,22,128.2051282051282,0.23054552251521646,100.0,0.5363331883228243,4.900706694315709,11.769992339870322,168.88014798100204,0.5100490718588507,acceptable,run,3B8D
3.7159690856933594,1.2522722682286407,16.56,0.14334680055467378,0.002234402005331427,0.13794393533831198,-0.7634302713429215,24,163.04347826086956,0.27728992453967727,100.0,0.5281601354706049,4.533833194882691,10.78428462762515,186.95945913679412,0.5042142359265013,acceptable,run,3B8D
3.714944362640381,1.3128660876590588,19.18,0.1898891985443369,0.002520816782957185,0.13413098223959952,-0.8259839176816435,22,154.63917525773195,0.2752006190693967,100.0,0.5224184355351995,4.786198272056538,10.797239091707102,181.6375666661595,0.497414453400709,acceptable,run,3B8D
3.7179617881774902,1.3936578468996164,17.46,0.1713733385356566,0.0013799771111468078,0.10969739396969241,-0.6955475156693436,23,156.65903141361258,0.2502000215996825,100.0,0.5232575372587897,4.7774970326319,10.875732072308978,181.48890314375947,0.4982589239432282,acceptable,run,3B8D
3.7249643802642822,1.5350434255705918,25.580000000000002,0.2200891711056521,0.002445482322495427,0.14018695857253938,-0.8440380287846447,24,157.06806282722513,0.2440295730859952,100.0,0.5097784141778018,5.18701030580807,12.059823300996031,214.9660818415715,0.48333615529761426,acceptable,run,3B8D
3.7179617881774902,2.080387800444355,30.159999999999997,0.15935872922221728,0.0019145506446127856,0.12640969871434418,-1.0673651207131378,23,159.5744680851064,0.26988173952919914,100.0,0.49815271827382235,4.8374404683876175,11.143495800642155,269.44577614507295,0.4740548770856715,acceptable,run,3B8D
3.7279815673828125,1.6764290042415673,31.66,0.19472017900177702,0.0024377265242515487,0.11122030010825999,-1.0618714511797365,21,120.96970879469295,0.20572204432657357,100.0,0.49444407928319756,4.968677843214675,11.780563721237268,349.3738736485902,0.46987674586876654,acceptable,run,3B8D
3.7279815673828125,2.1207836800646334,30.9,0.16497537620579408,0.003098404043788407,0.10419641338018529,-1.0269997131725686,21,124.00081984013119,0.1687856058639257,100.0,0.4943738861865128,4.988708129418761,11.462632679529758,261.0688568120475,0.46971101593660275,acceptable,run,3B8D
3.7229716777801514,2.4641486568370023,42.86,0.13424889913959692,0.0034458904552374797,0.1088137931430585,-1.0278063186870305,21,122.46734204212211,0.11909959397634708,100.0,0.4702283126461515,4.777390384569096,10.661779531387912,138.678546733705,0.4477636704522728,acceptable,run,3B8D
3.7279815673828125,3.0094930317107655,33.92,0.18958133431702479,0.004087578903562383,0.14684283970151385,-0.7193611912626712,19,117.4172794117647,0.28163906946541434,100.0,0.4908135819284405,4.874183604050034,11.048111151211419,158.49797751011258,0.4668904267916338,acceptable,run,3B8D
3.7279815673828125,3.6356291658250854,42.96,0.15650059069108924,0.0034695271074769315,0.12436139214853961,-0.9399418707042995,21,121.9592808038075,0.1445215342212676,100.0,0.4692377622839238,4.849488607446377,11.017724772423307,174.51140476262583,0.4464821304601286,acceptable,run,3B8D
3.7279815673828125,5.837204605130276,56.720000000000006,0.15823466985844215,0.002495747257810974,0.12244549867579202,-1.180808896089674,20,120.0,0.22214077790514608,100.0,0.4371233458770849,4.812650546698927,10.720886079118037,194.703795431449,0.41608612678198276,acceptable,run,3B8D
3.7279815673828125,5.150474651585538,56.120000000000005,0.14147917515197223,0.0030079787755891954,0.12138268972233189,-1.1382001437788165,20,122.44897959183673,0.23566538599454334,100.0,0.43959070021441604,4.674514467541252,10.459617447858363,195.5784014282821,0.41904196933492727,acceptable,run,3B8D
3.7279815673828125,7.877196525954353,58.46,0.1595984588764187,0.0027559553736374873,0.1420029044822376,-1.4182160407855764,23,145.58657642413988,0.1762091319544777,100.0,0.431515301471318,4.855371184163175,10.988184297949317,187.30274424648297,0.4105636318684248,acceptable,run,3B8D
3.726956844329834,7.655019188042819,71.66,0.20172697405364381,0.002229421730691265,0.10721672086329517,-1.718172861654434,22,156.25,0.24983627875372194,100.0,0.40208707121976617,4.7394398599222365,10.581506562868435,174.9399926294412,0.3830303962947827,poor,run,3B8D
3.7249643802642822,7.412643910321147,74.16,0.17420073747696405,0.002465360120458692,0.11129753303703284,-1.6984700612153307,21,120.24096385542168,0.1541358098588044,100.0,0.39797936215107665,4.773496740049074,10.532097732247003,175.88607599611095,0.3789818302727269,poor,run,3B8D
3.726956844329834,8.260957382347001,67.38,0.27084432092537586,0.0031632394112736254,0.14514001393936515,-1.4648058254661587,23,155.440414507772,0.19237735795009325,100.0,0.4132207732771398,5.011465979323115,10.95573351607646,180.4566876830327,0.39251235480486,poor,run,3B8D
3.7279815673828125,10.603918400323167,76.2,0.17757197639983693,0.004533947382388408,0.15241188483872034,-1.5565595492139734,24,157.06806282722513,0.26046365539449884,100.0,0.3916202524884028,4.868370520466023,11.072697515183465,179.0199590042234,0.3725547275640828,poor,run,3B8D
3.7279815673828125,11.694607150070693,72.02,0.19972901077650432,0.003627022273629312,0.12042280204601256,-1.6666666558243586,22,151.5151515151515,0.26201618531921134,100.0,0.39460660218345534,4.886379279277524,10.871263823603739,168.92578604431506,0.3753246269397019,poor,run,3B8D
3.7279815673828125,10.078771965259543,66.10000000000001,0.20721076086777712,0.004190630910158559,0.13401407949247984,-1.6785499868418097,21,115.83184257602862,0.17460020341988206,100.0,0.4110349568228867,4.9930409861686265,11.39572596548642,175.42567802578785,0.39051181296123944,poor,run,3B8D
3.7279815673828125,11.634013330640276,66.62,0.1463597532941016,0.004995746143309898,0.16937451426102065,-1.593945988099755,24,152.28426395939087,0.17455150813282833,100.0,0.4104114514966074,4.929127221608396,11.395933805190289,206.2045684293705,0.39018174892029,poor,run,3B8D
3.72399640083313,9.755604928297315,67.92,0.24851149745525672,0.004239969607293647,0.15113831008595885,-1.6715785888278487,22,153.84615384615384,0.33377704271030845,100.0,0.4097498473776606,4.783867211841371,11.324838566881958,233.61069584836414,0.39014795877839065,poor,run,3B8D
3.7279815673828125,13.270046455261564,73.16,0.3583898875188405,0.004384903607752118,0.12775800331411644,-1.7900794932553419,22,157.06806282722513,0.2787436951365368,100.0,0.3899079897607256,5.013486271431676,11.165686635303002,212.94731483693587,0.3703600062228564,poor,run,3B8D
3.728949546813965,10.300949303171077,59.260000000000005,0.19870336659778917,0.002892115907998939,0.12041603660549584,-1.6929318872190733,23,154.63917525773195,0.2849265750079939,100.0,0.4229132424220836,4.97682704827525,11.253660413324893,166.72959133547343,0.4018655817824835,acceptable,run,3B8D
3.728949546813965,7.655019188042819,52.88,0.16454537310033604,0.002792579794682115,0.10882879393273286,-1.6208666358689412,22,155.440414507772,0.28913530432392914,100.0,0.43980806969065445,4.850988815897193,11.15313353623524,166.407020518623,0.41847302941854747,acceptable,run,3B8D
3.7299742698669434,6.180569581902646,49.14,0.1876280702336952,0.002475809046897374,0.12296596010767691,-1.6613724714201084,27,165.39092400218698,0.1551281079643413,100.0,0.4516485750921789,4.589609621224668,10.247355250421277,174.22439472981392,0.4309196686356242,acceptable,run,3B8D
3.7279815673828125,6.968289234498082,62.0,0.25547345024660895,0.003103444535838974,0.12130534258742556,-1.70706873648908,25,162.18111685806963,0.244270757273707,100.0,0.42418734897562105,4.905245260577288,10.810350214442904,179.3410444747728,0.403379919144026,acceptable,run,3B8D
3.7249643802642822,7.210664512219754,60.28,0.1146151519811894,0.004096845395549118,0.1421086765874864,-1.6977259966223597,27,167.16334512944684,0.06966840632439894,100.0,0.42921891902843967,4.95262536272453,11.002945159935576,160.25031289389776,0.4079613139830251,acceptable,run,3B8D
3.7279815673828125,4.908099373863866,57.98,0.13108040092547263,0.004247572395905918,0.1631863834658522,-1.6531299519240652,26,166.66666666666669,0.2493609395843423,100.0,0.44052636373600673,4.846866661482033,10.676542229558155,143.99985595577084,0.41917463827704715,acceptable,run,3B8D
3.728949546813965,6.887497475257525,57.099999999999994,0.16889892872993653,0.0028791088110135324,0.11307976782519037,-1.7135587288950402,28,170.45454545454547,0.07912263541031292,100.0,0.4333276294855538,5.057147588979999,11.345843794894249,157.58210174128382,0.411413611718641,acceptable,run,3B8D
3.7249643802642822,4.100181781458291,52.32,0.15008323847842722,0.003233337537115972,0.13988912232652584,-1.6000952393306784,26,157.89473684210526,0.19312756541672815,100.0,0.45113841864466186,5.18419449518853,11.712030480694372,160.03691494277143,0.4277505255796047,acceptable,run,3B8D
3.7189865112304688,7.049080993738639,54.559999999999995,0.14806899708355747,0.0030871195819178097,0.1258308297097413,-1.623050132001269,26,158.73015873015873,0.26927525967186716,100.0,0.43935754717404263,5.054259703899903,11.184477050740798,162.4268599265487,0.417151275711182,acceptable,run,3B8D
3.7279815673828125,6.907695415067663,54.44,0.14785659981360075,0.0036830673297436837,0.11412521862492453,-1.6324796947605542,27,158.73015873015873,0.18396016398780204,100.0,0.4387116289159053,5.164142495320397,11.55782072555656,166.82509510498994,0.4160559352551467,acceptable,run,3B8D
3.7279815673828125,3.7366188648757825,50.239999999999995,0.11875962085505716,0.00403595389279781,0.13038717612505288,-1.6063068930271949,27,160.42780748663102,0.20159310691671314,100.0,0.4550772761245362,5.0091473769174755,10.998091971166426,168.42232254941362,0.4322817846845965,acceptable,run,3B8D
3.726956844329834,2.847909513229651,49.16,0.23034366168852435,0.0032845293772547483,0.12772826649279578,-1.5735446595560654,27,166.7490118577075,0.06629259232142298,100.0,0.4587492953478648,4.875472410149366,10.842024352074294,156.54531843176105,0.43638310002142505,acceptable,run,3B8D
3.7229716777801514,5.110078771965259,56.16,0.18348311490322713,0.004413643509153972,0.1389746321473344,-1.6621619471722375,27,163.58611672411746,0.2027787488788477,100.0,0.4413473729048627,4.9717126685874655,11.188763712266507,156.37862991426906,0.41940484965367364,acceptable,run,3B8D
3.7279815673828125,3.5346394667743892,50.03999999999999,0.12776504736676164,0.003071965409136864,0.14292892421738707,-1.5877922863897518,27,164.95966645517993,0.20341375584988777,100.0,0.4571328090427711,5.0452368802731,12.178693115726432,338.5007925359222,0.4340693759691168,acceptable,run,3B8D
3.728949546813965,3.3528580084831345,51.13999999999999,0.1827285830977902,0.0038764812336376906,0.13332084373247136,-1.6264980828628233,27,166.35944700460828,0.07445233522639687,100.0,0.4543375986014373,5.11267421576327,11.980887335236213,260.2789751248129,0.4311087973452236,acceptable,run,3B8D
3.7279815673828125,4.443546758230661,52.300000000000004,0.14333148817928973,0.0038321529435662574,0.144421466324897,-1.6353560857826148,28,158.73015873015873,0.07846484866036986,100.0,0.4509439068581923,5.227814844474633,11.779401695461525,164.0454380684931,0.4273693943552059,acceptable,run,3B8D
3.730998992919922,2.484346596647142,25.240000000000002,0.1322830662284044,0.0034180020535092438,0.14628423684862973,-1.6090116327592268,28,161.29032258064515,0.0770610111706907,100.0,0.5091681476268671,5.0290865831032106,11.43098004489437,166.0073370059979,0.4835616406291292,acceptable,run,3B8D
3.728949546813965,2.484346596647142,47.5,0.15730048023155457,0.0031611394400752287,0.13507609228783887,-1.5659031640039107,27,159.5744680851064,0.2030254641444215,100.0,0.463529795513996,5.194216131308749,11.640437120957467,156.62307939170555,0.43945305610198554,acceptable,run,3B8D
3.726956844329834,2.2823671985457485,50.28,0.09111630642583488,0.0029820237119786673,0.13356933242725585,-1.6099428587863924,27,160.42780748663102,0.20203103099301362,100.0,0.4582233799890564,5.113101553333554,11.341251779446806,151.15589865658208,0.4347939532290984,acceptable,run,3B8D
3.7279815673828125,2.1813774994950514,46.739999999999995,0.1633340391936986,0.0032440820494718647,0.15032380973105358,-1.5291677986830758,26,161.29032258064515,0.2580977235937372,100.0,0.4671770574694786,5.1064658688248095,11.52681589895626,225.681207715783,0.4433208204828196,acceptable,run,3B8D
3.728949546813965,2.5247424762674204,39.660000000000004,0.21097962246469754,0.0039033212903820504,0.12996396551698405,-1.5499999121925208,25,159.15231340763256,0.208236949580592,100.0,0.4786187874254465,5.023036732504567,11.591930217572424,249.83823789090133,0.45457758992439834,acceptable,run,3B8D
3.7249643802642822,2.1005857402544943,48.88,0.11916161898355962,0.0029723613548549043,0.13445267908367486,-1.5597815860583604,25,159.5744680851064,0.27710578497885474,100.0,0.46147510153844506,5.032360393168312,10.978051605187508,135.51149751179108,0.4382520113042911,acceptable,run,3B8D
3.7279815673828125,2.2419713189254695,45.2,0.14145422449851255,0.0023822468316197516,0.13812691873145067,-1.5304641657950901,28,172.41379310344828,0.06472079801162224,100.0,0.46891899702396156,5.247238853864202,11.590807877055747,131.32526631634053,0.44431369721896996,acceptable,run,3B8D
3.7279815673828125,2.4641486568370023,43.580000000000005,0.18485576715469274,0.002397075925658183,0.1501377556517161,-1.4597210588655922,28,169.49152542372883,0.07766922433020636,100.0,0.4729129563257336,5.106276135016567,11.280804905096472,152.19359154078742,0.4487647148974714,acceptable,run,3B8D
3.7279815673828125,2.2217733791153305,40.9,0.11567427267311717,0.00266217250683415,0.1418402524429873,-1.541402475727976,28,169.49152542372883,0.06765924658871941,100.0,0.4779299189078805,5.049809483518064,10.941865324653572,148.6119599262698,0.45379536853830016,acceptable,run,3B8D
3.7279815673828125,1.494647545950313,40.18,0.15664353772981907,0.0020793607910777217,0.12575035450956917,-1.501302290606425,27,162.16216216216216,0.1441183368555847,100.0,0.4792183806817141,5.0777344232402815,11.110618806991546,134.53561026446758,0.45488494400334406,acceptable,run,3B8D
3.7189865112304688,1.555241365380731,42.44,0.10899324917828061,0.002601848447996097,0.12475884419377328,-1.4791361632088478,26,163.04347826086956,0.21972065817250191,100.0,0.4744782146506451,5.115508430747512,11.325696021178702,162.94512536946434,0.4502062415781311,acceptable,run,3B8D
3.7279815673828125,1.7774187032922641,41.72,0.13271155807804025,0.003092586364170353,0.1403527013768165,-1.5014626415151833,27,166.85205784204672,0.06568285688489203,100.0,0.4770302017211565,5.1678054487611504,11.24264393939917,159.91471509894535,0.45237820896437425,acceptable,run,3B8D
3.7279815673828125,1.7774187032922641,42.54,0.14003681917021552,0.0029556273322902667,0.15517756903993246,-1.4692100446438874,28,173.41040462427748,0.06316930560463464,100.0,0.4768690947078431,5.179172037244385,11.592541996723504,135.33048435709654,0.45217122390047404,acceptable,run,3B8D
3.7279815673828125,1.656231064431428,42.26,0.16107958516423698,0.0024476872805131596,0.14021678306490398,-1.4652077678052498,27,163.06274370790499,0.222635061104325,100.0,0.47617901484493297,5.321046326384714,12.062572934072717,267.0954996947994,0.45084130886851176,acceptable,run,3B8D
3.7189865112304688,1.7976166431024034,45.06,0.11586372478279122,0.0025528860272555545,0.14528207436329252,-1.4597278895287835,28,164.83516483516485,0.06089448572457956,100.0,0.470801627566368,5.526095874351503,12.215026034531544,232.02347576630368,0.4447846782490432,acceptable,run,3B8D
3.7259891033172607,1.7774187032922641,42.96,0.18587253653225552,0.0023066402403019107,0.14484419943140842,-1.4690193642513405,27,163.04347826086956,0.14065244187678896,100.0,0.4749983381750499,5.076162590403606,11.61571064937574,291.80453627124734,0.4508866502275692,acceptable,run,3B8D
3.7279815673828125,1.9390022217733793,40.660000000000004,0.13311862718893244,0.00205811611628485,0.14341178024095402,-1.4587134899338423,27,163.04347826086956,0.15048163775823084,100.0,0.4791322593299878,5.150511120226699,11.128104982756046,154.9298485136715,0.4544544990326034,acceptable,run,3B8D
3.728949546813965,2.262169258735609,38.68,0.20584090707967717,0.002257424395154477,0.1345552676160694,-1.5052290441094733,27,161.72624237140366,0.14432925264819016,100.0,0.4815621727605267,5.164903201733742,10.94276056528505,157.42611710797345,0.4566899526812797,acceptable,run,3B8D
3.7189865112304688,1.9995960412037974,42.28,0.0954613290332879,0.0018535793374386176,0.1266786995543151,-1.4494885558501924,28,163.04347826086956,0.05881593597514389,100.0,0.4741011540704736,4.938521792352842,10.802025587761683,148.5184806018968,0.4506875652589069,acceptable,run,3B8D
3.7279815673828125,3.049888911331044,45.019999999999996,0.12318782487933336,0.0023261849457861116,0.15801289370756955,-1.502149129171952,26,161.29032258064515,0.17611230881853138,100.0,0.4696469156052022,5.1222625983552215,11.3348297657676,152.95306844022423,0.445590367302828,acceptable,run,3B8D
3.7279815673828125,2.54494041607756,47.3,0.13472116174118093,0.0029362269120771843,0.15149242077752112,-1.4805632414605676,27,166.30835380835381,0.1546913185880916,100.0,0.46544649753668876,5.5215585479264515,12.12237027836432,164.210372254389,0.4397465966659274,acceptable,run,3B8D
3.7279815673828125,1.5148454857604525,39.24,0.1594656636512507,0.0017908935765441419,0.1305902562854652,-1.3887815101884877,25,163.4889522451889,0.2413032276652982,100.0,0.4815410925260102,5.0247742320968865,10.663176292680289,163.5609554449414,0.4573447397918054,acceptable,run,3B8D
3.7259891033172607,2.5045445364572814,40.8,0.12032192111053541,0.0022824748288964806,0.1433857537384701,-1.3256425410173038,27,164.85507246376812,0.19586678956526282,100.0,0.47771857798786277,5.196210604129536,11.188923196629805,142.53771107524844,0.4528953145805606,acceptable,run,3B8D
3.7209789752960205,2.645930115128257,42.02,0.14512393255760342,0.0020647866052229927,0.14226550473955607,-1.389579339001834,26,166.66666666666669,0.18260652195808752,100.0,0.47488403546139246,5.142510538058026,11.24365488499135,150.44750112185713,0.4504630738942351,acceptable,run,3B8D
3.7279815673828125,3.029690971520905,38.2,0.11244226013543973,0.0020262806775159614,0.14302643528392422,-1.4125320285251624,27,163.04347826086956,0.13478248050259112,100.0,0.48183243502474493,5.262857966069783,11.304635977266553,143.2939373964626,0.45647427833493714,acceptable,run,3B8D
3.7209789752960205,1.9592001615835186,45.300000000000004,0.11023642442279893,0.0019168631576881227,0.15094832977189557,-1.4191530314152887,27,163.04347826086956,0.14367145377584536,100.0,0.4705637069564982,5.408059285183615,11.908436025150783,148.5576179420256,0.445115342709733,acceptable,run,3B8D
3.7189865112304688,1.9592001615835186,38.22,0.11818252677654512,0.0019170420242621013,0.14995362517926658,-1.3531199218344323,27,163.4889522451889,0.13714918967521297,100.0,0.4846244862529612,5.3311762241741505,11.611958978889515,139.42354955622818,0.4587883008653172,acceptable,run,3B8D
3.7189865112304688,2.383356897596445,34.260000000000005,0.13317494010873407,0.0015444618503176473,0.123430747144459,-1.3167529984009292,25,160.42780748663102,0.16359044310536874,100.0,0.48904940086952164,5.337395737620901,11.621679535587335,159.00842231754226,0.46294689899265123,acceptable,run,3B8D
3.7279815673828125,2.767117753989093,35.4,0.14878937016332147,0.0017132524270352366,0.11512061200113728,-1.3283911559020452,24,160.42780748663102,0.223573550990519,100.0,0.4851721784061992,5.367904639960966,11.811509877159171,156.57101960526893,0.45912859852973315,acceptable,run,3B8D
3.7279815673828125,2.1611795596849124,41.980000000000004,0.14020461609709065,0.0019197012607771419,0.12412509846107789,-1.4835084757372061,22,157.89473684210526,0.27668643959520894,100.0,0.47412307260917497,5.395853145978903,11.952378246521802,138.4333129775805,0.44854008787998095,acceptable,run,3B8D
3.7279815673828125,3.130680670571602,43.74,0.13869603052299365,0.00167763246221992,0.135328471453838,-1.4208213726567858,25,158.73015873015873,0.16402599656564393,100.0,0.46978231409201,5.4092073531713165,11.691882285881693,136.40460967935869,0.4443708146142466,acceptable,run,3B8D
3.7279815673828125,3.0700868511411836,38.12,0.18287773933946253,0.0015712458246373608,0.14537759177324236,-1.276034443054704,23,157.06806282722513,0.22842205576630575,100.0,0.48214621651074796,5.565501900646699,12.286263393572593,142.10927518095627,0.45531235966694616,acceptable,run,3B8D
3.7229716777801514,2.7267218743688146,40.08,0.23413391610922543,0.001800000474511029,0.13235647023622163,-1.3972420942440285,25,160.8590650336381,0.2153545719898961,100.0,0.4776136223566483,5.260688126915499,11.31107573896669,151.51710634674117,0.45248785923280105,acceptable,run,3B8D
3.7229716777801514,82.52878206422945,90.48,0.7657546113654063,0.006030156344221306,0.07281225483989137,4.740603274137667,5,146.3068181818182,0.188086625136042,100.0,0.2823712810887257,1.5890824630700582,17.86514900489799,692.8203230275507,0.27788416858019854,poor,run,3B8D
0.0,100.0,0.0,0.0,0.0,0.0,0.0,0,,,0.0,0.2,0.4156921938167523,15.486355284572277,692.8203230275507,0.1991686156123665,poor,run,3B8D
3.7279815673828125,30.296909715209047,57.49999999999999,0.9390214394034511,0.002099505897682677,0.08535691573589123,-1.70673029837687,17,156.66757567493863,0.17751618951923925,100.0,0.3829395695788503,4.444662726020207,19.311792045508415,692.8203230275507,0.3659191972665969,poor,run,3B8D
3.7279815673828125,8.503332660068672,38.86,0.4888202894817841,0.0017823430060188857,0.12215271637738359,-1.4206924442959803,22,139.53488372093022,0.36523041156507513,100.0,0.46748186014093007,4.891357261369849,10.649323744308015,143.04185009677877,0.44461565222933985,acceptable,run,3B8D
3.7259891033172607,4.079983841648152,38.4,0.10867335830051346,0.0016864646862376114,0.15765959005963573,-1.2644312487932343,26,163.9344262295082,0.1632299186106012,100.0,0.4807914929951762,5.234158007089014,12.611511700463417,380.36175368186866,0.45562610656716634,acceptable,run,3B8D
3.7279815673828125,5.271662290446375,40.02,0.18576806271972618,0.0017952714161107999,0.15224850256350764,-1.2803726716896293,24,159.5744680851064,0.24364437383544948,100.0,0.47462846853280605,5.221921122095513,12.6826104186325,402.8990141609737,0.449843744283013,acceptable,run,3B8D
3.7279815673828125,4.524338517471218,43.82,0.13784452666351976,0.002494454120286719,0.1697078433845597,-1.2452641212224864,23,134.8572810836962,0.1858275820336314,100.0,0.4702640278028306,5.286683297067828,11.755768318322737,175.00843746839078,0.44540265799285994,acceptable,run,3B8D
3.7279815673828125,3.7568168046859216,38.98,0.1398962265924983,0.002006669239228605,0.18159206628921323,-1.2462405279491722,25,160.42780748663102,0.1865541063429231,100.0,0.48266342724735056,4.819960083649642,11.479409649476738,342.482049805752,0.4593992427156529,acceptable,run,3B8D
3.7279815673828125,5.554433447788325,45.14,0.10878472958736427,0.0022722237184820125,0.1718079932025332,-1.281818525052272,25,161.29498482439658,0.19620606915408612,100.0,0.4657731739743347,4.814921505275898,11.696903847136806,393.97868249442797,0.44334656125483834,acceptable,run,3B8D
3.7249643802642822,4.079983841648152,43.04,0.1090807575722668,0.002369936721492938,0.17004016376026843,-1.2595296411494907,24,159.5744680851064,0.21922592617988013,100.0,0.47274586286572295,4.963506296079922,11.462942060359792,172.67478320250794,0.44928109219792545,acceptable,run,3B8D
3.7249643802642822,3.3326600686729955,31.78,0.1903118924013423,0.0027319367527235067,0.12910396656800577,-1.1035813802707743,22,156.25,0.28995081495407954,100.0,0.49267711248018864,4.753326042486253,11.036966929213712,174.51895769950244,0.46925856298729857,acceptable,run,3B8D
3.7229716777801514,5.312058170066654,46.64,0.20999155546343876,0.002197879360632853,0.16513637692470454,-1.3160596409431258,23,150.81470253884046,0.18368084733988363,100.0,0.46259286275415723,4.754152825542613,10.260421804302212,164.63225578176693,0.44060049109877203,acceptable,run,3B8D
3.7279815673828125,4.625328216521915,34.44,0.12502881629719514,0.002095283269918727,0.15590940321130936,-1.2021081189548537,25,164.3847955323365,0.27298388197264134,100.0,0.4874462627187274,4.819380320696262,10.307962330721553,161.25145803003414,0.46395437345929164,acceptable,run,3B8D
3.7279815673828125,5.9179963643708335,39.12,0.1990888975429866,0.0025085402529472153,0.1582928686181712,-1.191213887367125,24,162.16216216216216,0.1896699276771184,100.0,0.4757386205249212,4.722347475746499,9.850983675348616,139.94936549248214,0.45327258978741136,acceptable,run,3B8D
3.7249643802642822,5.069682892344981,46.44,0.12270032723598061,0.002183029217972148,0.14494406066855894,-1.2649261311046593,23,150.3995577222697,0.19738550803312543,100.0,0.4614637726621964,4.913393753834118,10.36777059718614,150.90471039573748,0.43879024048000476,acceptable,run,3B8D
3.726956844329834,5.635225207028883,38.9,0.11782930348796301,0.0023052567294383837,0.1656301805249377,-1.2089358690645642,23,153.86233923358145,0.21957399239225403,100.0,0.4774757592733081,4.9655469405747175,10.251004134367827,149.81441598923803,0.45376647631672645,acceptable,run,3B8D
3.726956844329834,5.857402544940416,41.88,0.14459429719395764,0.002492757125536673,0.14343908661225505,-1.2503624082553524,23,153.84615384615384,0.20258281230323555,100.0,0.4688581830889995,4.854975967266761,9.92843535350805,154.09888469805034,0.446095230979465,acceptable,run,3B8D
3.7279815673828125,4.948495253484145,35.44,0.16620867456851338,0.002218087569987678,0.16675549889424715,-1.2810184844620784,23,157.5074412964392,0.28444424296158566,100.0,0.48588140637290345,4.935301758491055,10.573987350817395,173.0764676546326,0.4619016927800005,acceptable,run,3B8D
3.7249643802642822,5.635225207028883,49.059999999999995,0.14120336266888378,0.002519488185834512,0.1548600975010928,-1.256309760307399,22,139.53488372093022,0.23482879293064182,100.0,0.4560818191637104,5.139348849052744,10.940026705011846,169.172606895422,0.43264218343978145,acceptable,run,3B8D
3.7249643802642822,5.837204605130276,39.32,0.1424189792763707,0.002593932184012561,0.15867893736836294,-1.2153544281409463,23,152.06344317831844,0.22444969999366543,100.0,0.4755387033719619,4.951882100562581,10.498895604617271,131.29944654462778,0.45199058743843834,acceptable,run,3B8D
3.7279815673828125,6.200767521712786,41.099999999999994,0.181089216989773,0.0025546626613926746,0.14729367252984663,-1.2927965652355708,23,148.4096350222309,0.21353828816270712,100.0,0.4701160080590281,4.836853922078243,10.301727464528575,174.7366475057509,0.4473771834849073,acceptable,run,3B8D
3.721946954727173,6.099777822662088,39.160000000000004,0.2052798803582452,0.002693320593621305,0.15167409658925454,-1.1689239564540708,23,155.89569160997732,0.3012290675650411,100.0,0.47463494400070627,5.069745724718618,10.800243415974123,178.34371672219717,0.45057215921920984,acceptable,run,3B8D
3.7279815673828125,5.938194304180974,47.38,0.15912741195215563,0.002195596638377045,0.16680080544550221,-1.2359249083042365,23,139.4230769230769,0.18567005639706588,100.0,0.4600265249532173,4.7938935446209205,11.183394428897186,333.0451922138996,0.43797334306994107,acceptable,run,3B8D
3.7189865112304688,5.71601696626944,47.02,0.1881402526071824,0.0027188643952454727,0.14055031942731766,-1.283619579600558,22,127.11864406779662,0.1964055692787986,100.0,0.45857272374859837,5.054884590543036,12.490090155564786,350.54939467622825,0.435392401799397,acceptable,run,3B8D
3.7279815673828125,8.01858210462533,58.160000000000004,0.22872765273535373,0.0032615023377004296,0.15439933261537392,-1.4173754778732601,20,127.65957446808511,0.3234839560932229,100.0,0.43306915107521027,4.677835521738578,12.299419607199896,355.6892563343156,0.41281088849252234,acceptable,run,3B8D
3.721946954727173,5.635225207028883,43.4,0.19570719826775315,0.004003254578183636,0.1514455873873,-1.1826820401984275,22,128.2051282051282,0.20924750856913404,100.0,0.4670612565343024,5.484530972880032,12.376132278860869,397.6994850842329,0.44144513725735596,acceptable,run,3B8D
3.7279815673828125,5.554433447788325,37.18,0.2115211278336279,0.0029025572913676675,0.16348958673654587,-1.2083977528498702,24,160.42780748663102,0.23677779451892883,100.0,0.4808639262119717,4.968340806976866,10.706799026331094,233.3266117343919,0.4569729675399512,acceptable,run,3B8D
3.7179617881774902,5.049484952534841,37.019999999999996,0.20158480779874727,0.002426284480737678,0.1358775289304616,-1.1779612736665914,23,147.42815744989133,0.21782445055714794,100.0,0.47943949924861295,4.962955638337464,10.857870628326344,241.9057206817053,0.455645129588237,acceptable,run,3B8D
3.7229716777801514,6.018986063421531,42.6,0.17137459583009818,0.0024120159614374513,0.13934591850405678,-1.1615825262525232,24,160.42780748663102,0.236369319783871,100.0,0.4666866071811886,5.01766222926185,10.367949397755973,228.2631296838944,0.44326984956363447,acceptable,run,3B8D
3.7249643802642822,5.211068471015956,43.24,0.16834348924690676,0.0033524380423062767,0.1545907360346807,-1.1638629827918736,22,128.75536480686694,0.23594331429683818,100.0,0.4685432680122592,5.206305093165808,10.881621202831866,171.64061946755908,0.4441494759860514,acceptable,run,3B8D
3.7259891033172607,5.837204605130276,41.0,0.17770932271551898,0.002730321771612648,0.16058337350211718,-1.1910538994028106,24,154.63917525773195,0.1889249239702346,100.0,0.4723686087835903,5.057391199481715,10.441421210135491,142.2176426717075,0.4484790803338548,acceptable,run,3B8D
3.7279815673828125,6.3421531003837615,42.68,0.22452390647585516,0.0031646202163339576,0.146775263107611,-1.1678690813687305,22,134.52914798206277,0.22505307257681187,100.0,0.4666215202889188,4.897448741202986,10.10972713785764,145.40784154192826,0.44376897051734693,acceptable,run,3B8D
3.7279815673828125,6.422944859624319,39.86,0.19820203888430535,0.003077452170511728,0.1568958536685655,-1.1358647413397114,20,124.48132780082987,0.25497474317071683,100.0,0.4731094068475947,4.916096272056767,10.102516764555554,118.88726601953408,0.44985089293481023,acceptable,run,3B8D
3.726956844329834,6.261361341143204,43.18,0.16392145617396076,0.003505650962050013,0.16365267538121586,-1.048648125124245,22,147.7832512315271,0.2841857373262598,100.0,0.46746633090208944,5.392791075400535,11.201836542442292,124.76264776337648,0.4422568483286992,acceptable,run,3B8D
3.721946954727173,5.029287012724702,39.019999999999996,0.15671193673884573,0.0028258693332029335,0.15287349697000718,-1.0751981262803467,22,120.48192771084338,0.1773361253582993,100.0,0.4771755571774111,4.912747353753161,10.179822086380623,126.18433271905188,0.4537331276194209,acceptable,run,3B8D
3.721946954727173,5.211068471015956,31.680000000000003,0.16113862481928726,0.0032122665406224813,0.1363430384846085,-0.9657770065267872,20,116.73151750972762,0.24038538686003655,100.0,0.48984278747571286,5.1087873499022844,10.478359647537845,192.34579758992666,0.4648177611147449,acceptable,run,3B8D
3.7279815673828125,5.857402544940416,39.7,0.21476051031557752,0.003645294746526004,0.16368830536230342,-0.9910351845234562,23,155.0480769230769,0.2899752277651444,100.0,0.4752378009085344,5.098266576181013,10.862732189170826,188.42191259803042,0.45100891094743695,acceptable,run,3B8D
