dynamic_range_mv,flat_pct,clip_pct,baseline_drift,hf_noise_ratio,snr_proxy,kurt,mean_hr_bpm,rr_cv,pct_physiologic_hr,sqi_score_ecg,gt_2,gt_5,gt_4,gt_6,gt_93,gt_98,gt_142
0.681,0.08079175924055745,0.0,0.030990797469480923,0.020100201534355263,0.7335926256208796,4.065111919306407,64.03772553307819,0.01717769962330581,100.0,0.6827463231652223,1,0,0,0,0,0,0
2.045,0.08079175924055745,1.54,0.13599902377447132,0.008080792960598604,0.2367374337981716,5.181143829195177,47.00313599623091,0.059431454744665,100.0,0.6481002991795787,1,0,1,0,0,0,0
1.107,0.1615835184811149,0.0,0.08781667212140797,0.01874019261724923,0.2910752225464838,3.0186613142674608,64.23982869379014,0.22992353517375164,100.0,0.6239732794687554,1,0,0,0,0,0,0
3.002,0.04039587962027873,0.0,0.3255713697444421,0.002664720673256285,0.24405253398506263,1.288889789080712,76.04672681008557,0.05175400710984663,100.0,0.5936041129499315,1,0,0,0,0,0,0
2.0709999999999997,0.3433649767723692,0.0,0.1302913230261793,0.004229372614681186,0.5501276545104101,6.433388805298227,66.59275683665928,0.05373296385872151,100.0,0.7002184174754394,1,0,0,0,0,0,0
1.814,0.060593819430418104,0.0,0.05514853542227154,0.016155019249133016,2.728749877974516,22.189006083629305,82.32327034555448,0.04882893811224605,100.0,0.9161584686607175,1,0,0,0,0,0,0
1.176,0.20197939810139365,0.0,0.029438541137869454,0.006625701109909709,2.7477139814374945,23.207960805296114,62.24066390041494,0.01806702840511874,100.0,0.9167823176357279,1,0,0,0,0,0,0
1.525,0.14138557867097556,0.0,0.32510409953581215,0.0038295873603635035,0.03032674240012238,-1.1482845591873325,73.71007371007371,0.01741562714104396,100.0,0.5527497997837527,0,0,0,0,0,0,0
0.879,0.060593819430418104,0.0,0.04362493195675223,0.003620514466447947,0.6262157721899188,4.495903918169022,60.97560975609756,0.033261322146790666,100.0,0.6790450136660503,1,0,0,0,0,0,0
1.249,0.9089072914562714,0.0,0.08056141114752731,0.01471199976821116,0.8594576165404961,13.00382651141912,62.47074730875241,0.07502206998175731,100.0,0.7818513493148426,1,0,0,0,0,0,0
1.662,0.060593819430418104,0.0,0.17983727127776308,0.0021858179869042385,0.23602297580695092,0.7895256050098083,68.57357568925838,0.09857345538207725,100.0,0.5852754176322903,1,0,0,0,0,0,0
0.956,1.0502928701272471,0.0,0.02333298713244331,0.0025237660021541824,0.7272813946671761,15.758694746531805,188.67924528301887,0.5235000306528195,100.0,0.7692355030162251,1,0,1,0,0,0,0
1.021,0.060593819430418104,0.0,0.05500285608733202,0.0059911259553975926,1.002586031495395,6.120534410139355,78.64357864357865,0.01746723552944414,100.0,0.7383724566987118,1,0,0,0,0,0,0
1.152,0.9291052312664108,0.0,0.05655458275020551,0.00614145712698946,1.0466476952283041,13.588662728317995,76.14213197969544,0.07940395023668272,100.0,0.7987570415226154,1,0,0,0,0,0,0
1.7400000000000002,0.22217733791153302,0.1,0.1369899404105569,0.003481097546645995,0.3606212014189968,3.4399715326386495,58.708414872798436,0.08820585490866177,100.0,0.6368446404887401,1,0,0,0,0,0,0
1.3900000000000001,0.08079175924055745,0.0,0.01723982711471889,0.005994221186856969,2.8086777613935268,7.904312952773241,81.74386920980926,0.0442735623117254,100.0,0.8884481434168693,1,0,0,0,0,0,0
1.092,0.14138557867097556,0.0,0.04610645058933482,0.008286446978941295,1.1061512095280586,0.21520874755644703,140.51599315519283,0.11355532259004929,100.0,0.6588060712233488,0,1,0,0,0,0,0
1.181,0.04039587962027873,0.0,0.04216276115821781,0.009462250409276741,1.7509974012796525,1.1080929884133726,135.74660633484163,0.12315586751105662,100.0,0.7241380139122645,0,0,0,0,0,0,0
1.7850000000000001,0.20197939810139365,0.0,0.05664257846608255,0.0026630880952788053,1.124167861704572,17.675709596503243,57.58157389635316,0.08155627487736083,100.0,0.8070307259933956,1,0,0,0,0,0,0
1.135,0.08079175924055745,0.0,0.027496663755113858,0.006237226330921959,1.5736579974975298,1.1071192535638508,139.86089980439033,0.008177641922279212,100.0,0.7108070420651454,0,0,0,0,0,0,0
1.315,2.5651383558876995,0.0,0.07657374857377458,0.014200090755133815,0.8197531476576523,11.185436659611279,72.99270072992701,0.06750144382685391,100.0,0.7748639258845339,1,0,0,0,0,0,0
1.043,0.060593819430418104,0.0,0.0591038766569615,0.03318880603499919,0.5240316054170718,2.8276186657896902,78.53403141361257,0.04082500390703923,100.0,0.6441697011831183,0,0,0,0,0,0,0
1.223,0.1615835184811149,0.0,0.05580871854012671,0.004590709605890887,1.0404513998085079,1.8664303310913564,127.65957446808511,0.01349508970793202,100.0,0.677738227453477,0,0,0,0,0,0,0
0.862,0.7675217127852959,0.0,0.015927805379936284,0.0037296187189090895,0.40879133456730676,1.9150067423740937,80.21390374331551,0.38981618681449526,100.0,0.6178180442092334,1,0,0,0,0,0,0
1.222,0.10098969905069682,0.0,0.02758154129931587,0.014147512231157148,1.8111347616111462,17.567781891478287,88.75739644970413,0.022105579563223416,100.0,0.8617036357485783,1,0,0,0,0,0,0
1.404,0.1817814582912543,0.0,0.13833778771718586,0.005048066465670848,0.3853321104545068,1.3231195904429711,87.97653958944281,0.003286731322166432,100.0,0.6078059257942044,0,0,0,0,0,0,0
0.563,0.28277115734195113,0.0,0.03454179848841794,0.00393053073893119,0.5022909668201889,3.1975465321922973,63.69426751592357,0.05537044812566868,100.0,0.6471626003071089,1,0,0,0,0,0,0
1.067,0.04039587962027873,0.0,0.03564283587217556,0.007319585449643553,1.9150942350867282,5.484382320198913,88.62648583547153,0.008814609511529558,100.0,0.801320472461777,0,0,0,0,0,0,0
1.013,0.6867299535447384,0.0,0.06225207782829806,0.05670679933224076,0.6379582461309949,3.395255251592072,95.54140127388536,0.055557933282550175,100.0,0.6624066343753708,1,0,0,0,0,0,0
2.5780000000000003,0.10098969905069682,0.0,0.25571932631788286,0.003041929420718067,0.30252531130406435,1.0369367407812584,63.898415809243836,0.010087986121054536,100.0,0.5955024716271399,0,0,0,0,0,0,0
1.6480000000000001,0.22217733791153302,0.1,0.054459207108280214,0.010225648266836931,1.1753362265478966,17.80383417440173,67.79738922596064,0.02224912271605138,100.0,0.8112234411256423,1,0,0,0,0,0,0
2.261,0.060593819430418104,0.0,0.12709799135602795,0.014018664306286628,1.1120532693989398,6.298011500294688,99.33774834437087,0.04686318391942186,100.0,0.7507260524721554,0,0,0,0,0,0,0
1.865,0.1615835184811149,0.0,0.08463075392756172,0.011868242357833255,1.8119732862275297,13.581749377857218,75.28337531486146,0.017243474171771276,100.0,0.8616418687121534,1,0,0,0,0,0,0
1.254,0.08079175924055745,0.0,0.05452380716436103,0.003588838312848585,1.4011815435755444,0.8743550761286905,133.33333333333334,0.06426175789555319,100.0,0.6937001053286486,0,0,0,0,0,0,0
1.775,0.060593819430418104,0.0,0.021042542836730013,0.008539234280815733,3.0063160009887184,16.16986124690435,74.81296758104737,0.03235957539779534,100.0,0.9286218899599514,1,0,0,0,0,0,0
1.014,0.08079175924055745,0.0,0.045042753402708254,0.016671989408207615,1.3220865523703451,10.107372211883249,90.09333994679172,0.04764434902338951,100.0,0.8241046533319141,1,0,0,0,0,0,0
1.178,0.4645526156332054,0.18,0.041783787125890086,0.005040669279434146,0.9160138996663056,14.810878833772644,57.25190839694656,0.1015350193201815,100.0,0.7875678804516852,1,0,0,0,0,0,0
1.171,0.04039587962027873,0.0,0.05885707835639597,0.012872573810529517,0.755509403420484,3.3795618453787384,73.08431847315197,0.03195741169726446,100.0,0.6746058933276958,1,0,0,0,0,0,0
1.083,0.14138557867097556,0.0,0.060358394573037585,0.006574405352813364,0.8944300251521344,2.9084375716418,88.75739644970413,0.011363175993365454,100.0,0.680227571907852,0,0,0,0,0,0,0
0.8680000000000001,0.14138557867097556,0.08,0.03501909798416812,0.019594143442980567,0.6274955779230315,6.871989764202848,64.24012325299879,0.08134654693777682,100.0,0.7144872693732286,1,0,0,0,0,0,0
2.12,0.060593819430418104,0.0,0.046402853490405446,0.004124926254336201,1.6786267549312697,12.764770096870977,72.46376811594203,0.012491783388329349,100.0,0.8521701293963974,0,0,0,0,0,0,0
1.352,0.6261361341143203,0.0,0.015953702886677353,0.005642248493152084,1.6175824677874624,23.831623778454492,57.915057915057915,0.060182183289104074,100.0,0.8464610468342444,1,0,0,0,0,0,0
2.0,0.24237527772167242,0.0,0.045240886941596725,0.008206101120747513,1.726881346752743,19.559408563871173,79.15567282321899,0.03631068385435343,100.0,0.8553592091381519,1,0,0,0,0,0,0
0.707,0.060593819430418104,0.0,0.016692582522022423,0.009127997330848011,0.7795145242466844,3.635845245599868,143.36652882099753,0.3754447087390731,100.0,0.6806597407775159,1,0,0,0,0,0,0
1.3159999999999998,0.060593819430418104,0.0,0.11830215073070098,0.008095308653568625,0.4035340701266736,0.22042507576602155,93.45794392523364,0.015082676216952138,100.0,0.5932969685901673,0,0,0,0,0,0,0
1.619,0.6261361341143203,0.0,0.037600409276777734,0.006709923160457642,2.816532960968581,14.457779461110814,82.75877813798456,0.015406526212468788,100.0,0.9191549757169046,1,0,0,0,0,0,0
1.397,0.14138557867097556,0.0,0.0731984763685737,0.033967953358108885,0.7207191098593855,15.445064226232091,76.33587786259541,0.02424981401584225,100.0,0.7704338727975775,1,0,0,0,0,0,0
1.552,0.04039587962027873,0.0,0.030625234191958804,0.005786016323433412,3.320615465304425,17.316392771647575,84.74576271186442,0.06112533992119966,100.0,0.9408053622895864,0,0,0,0,0,0,0
1.987,0.12118763886083621,0.0,0.11240402283590771,0.00593870043912405,1.516583620754601,5.542251252641925,87.33642958844668,0.024505557694816188,100.0,0.7728274194066361,0,0,0,0,0,0,0
1.87,0.10098969905069682,0.0,0.32253197564038094,0.009535395238824277,0.026272064570518273,-0.49625975881400475,71.77033492822967,0.3051579058764175,100.0,0.5524251598997493,0,0,0,0,0,0,0
1.5899999999999999,0.7271258331650172,0.0,0.034097574172859905,0.0031231197466865153,1.5581621064238507,18.504842633414793,64.1028567775987,0.018512669946934217,100.0,0.841713861354981,1,0,0,0,0,0,0
1.588,0.12118763886083621,0.06,0.037233696787256104,0.03031604070143764,1.876384339725383,15.745329116456887,77.3201012335346,0.05231780072734372,100.0,0.8661133712290214,0,0,0,0,0,0,0
1.458,1.3734599070894769,0.0,0.02171353386014404,0.014169137319710994,2.1693972717529317,22.079718011016677,73.71007371007371,0.03806364913247568,100.0,0.8829068350249627,1,0,0,0,0,0,0
1.047,0.060593819430418104,0.0,0.017105804294646504,0.01173544813455741,3.761192811962798,13.66374155024268,90.63526834611172,0.02657183201722328,100.0,0.9546767757789263,0,0,0,0,0,0,0
1.071,0.12118763886083621,0.0,0.033758422042362415,0.02322010273036437,1.4880159578896333,21.258425320482154,72.03389830508475,0.041865582669691516,100.0,0.8374485516072195,1,0,0,0,0,0,0
1.194,0.04039587962027873,0.0,0.04293919952348494,0.02829017588547177,1.2644647441797146,13.218396775084138,88.10591685354493,0.013307734597438926,100.0,0.8193742461952258,1,0,0,0,0,0,0
1.564,0.22217733791153302,0.0,0.062194974289017185,0.01401008888788655,0.8559824414980369,14.699768359276312,65.00610385951732,0.02748263800816628,100.0,0.7829042194692435,1,0,0,0,0,0,0
1.78,0.14138557867097556,0.0,0.06429416115303813,0.0069389520311133965,1.379869714008475,16.948080065481445,77.51989744137599,0.0411022242236557,100.0,0.8287318733973975,1,0,0,0,0,0,0
1.287,0.42415673601292664,0.0,0.06492398785192632,0.0049772716747547045,1.4600105277826592,14.378791970549994,70.84072128734402,0.015442376949400644,100.0,0.8346225664426423,1,0,0,0,0,0,0
0.761,0.08079175924055745,0.0,0.026123366762948918,0.008841881952147851,0.38240816632253627,2.8515457121608163,73.06809034518679,0.5082800061432942,100.0,0.6306466382024293,1,0,0,0,0,0,0
1.3900000000000001,0.8887093516461321,0.0,0.024514975870355397,0.006263894951181588,1.255695493248034,9.591651343732284,69.60556844547564,0.11458978790441039,100.0,0.8108136431067052,1,0,0,0,0,0,0
1.493,0.44435467582306604,0.58,0.10915826560638658,0.008529501727493248,0.5933845691123335,8.855782241466954,71.25890736342043,0.030004695169503562,100.0,0.7393645731916487,1,0,0,0,0,0,0
0.8360000000000001,0.1615835184811149,0.0,0.022365301389343555,0.007465818241301635,0.6764055111016628,7.553785657778876,60.85418038183015,0.12090894456808748,100.0,0.7295008134765318,0,0,0,0,0,0,0
0.991,0.08079175924055745,0.0,0.02888795366615888,0.013643906697889336,0.5704626647107454,7.023134072373418,65.78979007863035,0.051197262063542456,100.0,0.7115539236758786,1,0,0,0,0,0,0
1.9060000000000001,0.12118763886083621,0.0,0.09686891661917986,0.006544484664639937,1.0416602101381451,10.169119185444272,71.42857142857143,0.006692717310108577,100.0,0.7999299821606883,0,0,0,0,0,0,0
1.5059999999999998,0.1615835184811149,1.2,0.09748361109627043,0.0018905330572453088,0.7178260006995233,7.291669216943852,67.11409395973155,0.033469745490609965,100.0,0.7270952177548795,1,0,0,0,0,0,0
2.099,0.060593819430418104,0.0,0.03906670436836322,0.002550861677807903,1.8705754200399116,22.91456506994856,63.15789473684211,0.05242807314276056,100.0,0.8659521121001891,1,0,0,0,0,0,0
0.7,0.04039587962027873,0.0,0.04299735975121872,0.059691670482137804,0.28365800128585883,0.8543900722613578,78.125,0.06049062854849169,100.0,0.5910166286166377,1,0,0,0,0,0,0
2.025,0.9695011108866897,0.08,0.1216997129896639,0.0022531339898313276,0.7694462925817158,15.476969484432043,44.576523031203564,0.05825566587982813,100.0,0.7732016538792696,1,0,1,0,0,0,0
1.972,0.30296909715209047,0.0,0.057405935640763225,0.038050048409492276,1.4579040161860317,21.94169168072546,73.17073170731707,0.04789967386758,100.0,0.8346971923514921,1,0,0,0,0,0,0
0.84,0.08079175924055745,0.0,0.03326264401490497,0.014895483769070635,1.3166291974369155,12.914113091385222,70.09345794392523,0.02216549759210841,100.0,0.8236522140923016,1,0,0,0,0,0,0
1.4220000000000002,0.12118763886083621,0.0,0.13031064740543968,0.0052964704852366635,0.377932046733177,4.105233922172813,59.28946381702288,0.015696051725966262,100.0,0.6489306695680525,1,0,0,0,0,0,0
0.924,0.14138557867097556,0.0,0.09955294631491719,0.04580878714713117,0.1353780972093088,0.04146202333056337,60.851926977687626,0.02967796904685876,100.0,0.5638677871131296,1,0,0,0,0,0,0
1.991,0.30296909715209047,0.0,0.12011783001486005,0.004452476785059534,0.9150162610374001,9.623967790769017,65.15034331849392,0.06364838740817422,100.0,0.7825195436582277,1,0,0,0,0,0,0
1.371,0.1615835184811149,0.13999999999999999,0.02613944133282585,0.00608870388910723,1.3221962017691853,15.311098559087863,51.41391949998825,0.046513711848191294,100.0,0.8236721532638802,1,0,0,0,0,0,0
1.1520000000000001,0.14138557867097556,0.0,0.04491971375293219,0.008838094339105214,0.9143693904864304,5.481467682133603,61.34969325153374,0.10605490793421112,100.0,0.7206461815228264,1,0,0,0,0,0,0
1.52,0.2625732175318118,0.0,0.06447637612474091,0.008710282505923627,0.9953974266164721,7.3183739591425105,69.60556844547564,0.07453594536141436,100.0,0.755291400541092,0,0,0,0,0,0,0
0.974,1.8582104625328215,0.0,0.02506256088882684,0.008513841641932566,0.9893682549011207,23.020643286298487,56.60377358490566,0.4791008685866973,100.0,0.7917830432295223,1,0,1,0,0,0,0
1.057,0.8887093516461321,0.0,0.01339486496262648,0.005574093390875051,1.6237882468314886,15.229441264356193,59.28853754940712,0.0164975286094041,100.0,0.8464055489640285,1,0,0,0,0,0,0
2.061,0.28277115734195113,1.1400000000000001,0.2681686318587321,0.022579816212986308,0.14508080769666565,1.008285756323538,92.74124190126713,0.044695258419769845,100.0,0.5767755252784631,1,0,0,0,0,0,0
1.504,0.6261361341143203,0.0,0.07248380765846803,0.0015326936596323953,0.9890392746047713,10.45150104880312,64.3087555486118,0.016674731127374085,100.0,0.7942176265457435,1,0,0,0,0,0,0
0.998,0.08079175924055745,0.0,0.03269770999147632,0.015527966451384677,0.9851887427961002,11.08929285230287,60.36217303822938,0.3314106870725749,100.0,0.7949621160958503,1,0,0,0,0,0,0
1.157,0.060593819430418104,0.0,0.0825636747638909,0.018837835717974892,0.9558369198473458,16.98262326251343,68.80733944954129,0.03806047226561651,100.0,0.7923542992383853,1,0,0,0,0,0,0
1.4169999999999998,0.14138557867097556,0.0,0.07031378281831697,0.005933607929348412,1.2535747788191012,4.75002543846399,91.74311926605505,0.04978006660849727,100.0,0.7395049899584153,1,0,0,0,0,0,0
3.2169999999999996,0.1615835184811149,0.0,0.052057710626692615,0.0022462745708769394,1.9886332246432021,27.46501953019344,62.761506276150634,0.046587762683287036,100.0,0.8737594380773515,1,0,0,0,0,0,0
2.22,0.14138557867097556,0.0,0.2064398790457575,0.00228927531997914,0.429791230661048,4.086090610714109,76.72634271099744,0.006358890636452176,100.0,0.6536960635301008,1,0,0,0,0,0,0
2.492,0.060593819430418104,0.0,0.207166460630645,0.0239073947026835,0.27941502154088493,2.701163637194483,97.0873786407767,0.03218834582555719,100.0,0.6182572532571055,0,0,0,0,0,0,0
1.453,0.060593819430418104,0.36,0.05710339858898014,0.004186691643227352,1.1808300179219169,15.209518523350646,67.4984814739826,0.07148032880169093,100.0,0.8114992734237175,1,0,0,0,0,0,0
1.434,0.20197939810139365,0.1,0.03945582371581456,0.0021038482873935666,0.8551551008228447,16.538433853787485,57.58157389635316,0.25946216024800045,100.0,0.7826682615698652,1,0,0,0,0,0,0
1.952,0.3231670369622298,0.06,0.04852341448769831,0.0033904491604669525,1.5877020303930771,16.916958611586757,69.76744186046511,0.08457944356882689,100.0,0.8446722698176823,1,0,0,0,0,0,0
0.985,0.08079175924055745,0.0,0.045240026163903345,0.006489253682747942,0.9364938939043854,7.153107826635569,71.17447737839268,0.0710491052684844,100.0,0.7478565520657368,1,0,0,0,0,0,0
1.4009999999999998,0.060593819430418104,0.0,0.05286555901735041,0.004112137267538067,0.9265393927599944,12.805173216238355,58.13953488372093,0.034204492061228345,100.0,0.7896950080648064,1,0,0,0,0,0,0
1.307,0.2625732175318118,0.0,0.021666329136521764,0.010147803323082996,1.322192638553022,9.85737808049822,70.92198581560284,0.028595607139887805,100.0,0.8216105498976863,1,0,0,0,0,0,0
1.904,0.5453443748737629,0.0,0.040192767057199597,0.016798939264690237,2.8633424904685776,27.37536357928386,84.27032784944964,0.05699133146362415,100.0,0.9214462843949424,1,0,0,0,0,0,0
2.268,0.20197939810139365,0.0,0.06429000483066512,0.0030270965972702896,1.0131290106254085,14.694163134475382,59.05511811023622,0.037101242912773696,100.0,0.7972253868408511,1,0,0,0,0,0,0
3.614,0.04039587962027873,0.08,0.28568852041522563,0.007061211048772387,0.4810935357499699,8.254543744345622,75.56675062972292,0.01017446131513529,100.0,0.7212785107429807,0,0,0,0,0,0,0
0.7969999999999999,0.42415673601292664,0.0,0.03601006875315213,0.009834364801836073,0.4286642434699368,2.324530767363007,61.09979633401222,0.01474919277683412,100.0,0.6265967007478903,1,0,0,0,0,0,0
1.779,0.6463340739244596,0.0,0.0245266417705661,0.001550797706168233,1.6912006855034252,16.624352919925105,64.50942350332593,0.12124774754765319,100.0,0.8519300295880766,1,0,0,0,0,0,0
1.869,0.8079175924055746,0.0,0.01088158421987711,0.0032363350322343843,3.5016155151331163,21.944813715384264,69.13359988530831,0.025453661280665486,100.0,0.9453964100390104,1,0,0,0,0,0,0
1.0470000000000002,0.22217733791153302,0.0,0.03785354639536386,0.003962471817887652,0.8947377575673355,3.2914672055374457,58.8235294117647,0.0990805808865821,100.0,0.6858396241820289,1,0,0,0,0,0,0
1.8450000000000002,0.08079175924055745,0.0,0.03984477714947976,0.027841953698776428,2.5811372693189982,16.669646790091285,94.9367088607595,0.005129866011511777,100.0,0.9087742978102807,1,0,0,0,0,0,0
1.4220000000000002,0.060593819430418104,0.0,0.02267081816114217,0.014302188124902882,1.5766483140080434,18.48997964909721,83.10249307479225,0.0063964263338979754,100.0,0.8444703269811659,0,0,0,0,0,0,0
0.764,0.12118763886083621,0.0,0.068088662842893,0.003984187822085324,0.27742642319915634,1.8162360243737323,105.26315789473685,0.10377814682318105,100.0,0.6046649946155491,0,0,0,1,0,0,0
1.605,1.8380125227226822,0.0,0.04345030732266563,0.022125495705234165,1.2747701659978874,18.11312900735351,64.93506493506493,0.07331719409321243,100.0,0.81664497467547,1,0,0,0,0,0,0
2.0340000000000003,0.04039587962027873,0.0,0.055719465552222264,0.018276373620966162,1.735321416938906,14.413578213871961,81.74386920980926,0.06133593211935518,100.0,0.8563785108475541,1,0,0,0,0,0,0
1.51,0.4645526156332054,0.0,0.03510977313616907,0.011247426143237513,0.6321948721400027,8.268417055236815,176.47058823529412,0.4497949438396316,100.0,0.7353971541221894,0,0,0,0,0,0,0
0.919,0.1817814582912543,0.0,0.03387734196566772,0.013690242750650996,0.6283559900963565,2.9348963278224067,78.8437629506838,0.012834097779642489,100.0,0.6555924552337036,1,0,0,0,0,0,0
1.5450000000000002,0.060593819430418104,0.0,0.030067818265868854,0.0076371756096833675,5.001093705101546,11.667453060802018,121.45748987854252,0.019894282997391648,100.0,0.9792262401178842,1,0,0,1,0,0,0
1.1600000000000001,0.1817814582912543,0.0,0.04742468580292773,0.010840139936163212,1.4230388638616578,16.764398273085902,69.76744186046511,0.04023063214636628,100.0,0.8321477381715212,1,0,0,0,0,0,0
1.616,0.7473237729751565,0.0,0.10109803081639784,0.019917533155369604,0.6750110011211077,4.9499805432645925,65.86811915549985,0.050310040794891084,100.0,0.6891396472177478,1,0,0,0,0,0,0
0.839,0.14138557867097556,0.16,0.0309593235605797,0.002732065823158574,0.9219313812753841,4.131631246443177,66.07929515418502,0.11636884302998685,100.0,0.700768202307344,1,0,0,0,0,0,0
0.815,0.7675217127852959,0.0,0.037096765924306524,0.026206465731747595,0.5188015273114549,2.1402054538091493,71.25890736342043,0.026231010339231243,100.0,0.631937125914614,1,0,0,0,0,0,0
1.5779999999999998,0.08079175924055745,0.0,0.0594457847781621,0.014429360556519069,1.9363668117676176,15.42766481358402,96.7741935483871,0.05821828762552004,100.0,0.8704192448567953,1,0,0,0,0,0,0
1.78,1.3734599070894769,0.0,0.04018095307896978,0.016331557325504325,1.5760809472176618,25.29328882354945,64.46356527599545,0.06943449727844753,100.0,0.8418010339019475,1,0,0,0,0,0,0
2.279,0.12118763886083621,0.0,0.043340814196517904,0.006940448544239827,2.7204022740547225,28.106921433811497,71.77033492822967,0.04098724164311416,100.0,0.9156355768939793,1,0,0,0,0,0,0
0.849,0.6665320137345991,0.0,0.061195135465009196,0.017675167310962737,0.4389591008435028,2.9492748080170994,73.71007371007371,0.035973084674646875,100.0,0.6364913653417997,0,0,0,0,0,0,0
1.028,0.060593819430418104,0.0,0.0335639023333228,0.017192316634323204,2.212977917436479,11.12297316068956,85.47008547008548,0.08228869058693683,100.0,0.8881974782313748,1,0,0,0,0,0,0
1.763,0.30296909715209047,0.0,0.17553439511502364,0.008035189198672516,0.24841810543082207,2.7060549314302946,59.523809523809526,0.13482295534107266,100.0,0.614770072849484,1,0,0,0,0,0,0
1.075,0.14138557867097556,0.13999999999999999,0.06371164038666197,0.008924056393702712,0.8679958024465149,9.443711087225507,64.44690571784577,0.006598922456718145,100.0,0.775548837871464,1,0,0,0,0,0,0
1.3719999999999999,0.08079175924055745,0.0,0.027657873299956177,0.011842391996048435,2.0812144210979233,22.500063813752543,60.483870967741936,0.03908034022000333,100.0,0.8799518405336392,1,0,0,0,0,0,0
0.968,0.10098969905069682,0.0,0.01566937180049067,0.018655275312295903,2.51956015877226,12.75961759354195,80.21390374331551,0.025181278809326767,100.0,0.9055174400367769,1,0,0,0,0,0,0
0.662,0.14138557867097556,0.0,0.011542023332759516,0.014503863816322108,0.4829780490102511,3.3339844552339244,62.63048016701462,0.10737217050043486,100.0,0.6476118104980038,1,0,0,0,0,0,0
1.411,0.08079175924055745,0.0,0.030186513183777835,0.013747885552059993,1.7262191156387898,15.78919622609179,82.98771062579391,0.06388237173983627,100.0,0.8556340184437562,1,0,0,0,0,0,0
1.206,1.656231064431428,0.0,0.030825506060598983,0.00457696944035996,0.9884177158429648,10.01726473097989,62.2430751350537,0.04012441637029719,100.0,0.7921015717911557,1,0,0,0,0,0,0
1.473,0.828115532215714,0.0,0.05358616055702377,0.008362612451433665,1.2138967041254385,15.728986105498816,58.36575875486381,0.044113518187166655,100.0,0.813515415965372,1,0,0,0,0,0,0
1.126,0.08079175924055745,0.76,0.05710007962196558,0.006838622644300623,0.9391132800515916,14.286647931327447,66.07961574848991,0.03914549350888646,100.0,0.7892778564225417,1,0,0,0,0,0,0
1.76,0.20197939810139365,0.0,0.09546454872377215,0.00598508686746034,1.2123261656001567,18.25583228307061,71.59904534606206,0.04427866018165147,100.0,0.8146337546101481,0,0,0,0,0,0,0
2.1959999999999997,0.04039587962027873,0.0,0.44490722799612464,0.018141259556113502,0.0475299848190751,-0.44679409983081486,94.79832268370606,0.053858350361497304,100.0,0.5546718090775445,0,0,0,0,0,0,0
1.145,1.0906887497475257,0.0,0.028480906303564233,0.0020529003388716155,1.4078125530656707,20.837283444833524,62.24066390041494,0.013125270327549178,100.0,0.8291016188574544,1,0,0,0,0,0,0
1.183,0.14138557867097556,0.0,0.06190331544302389,0.011312157198664305,0.38632036200051867,1.8636820284007234,110.29560845059,0.3872462880922893,100.0,0.6160923625446255,1,0,0,0,0,0,0
1.045,0.24237527772167242,0.0,0.03741264699615383,0.012927218164514847,1.437523979141539,15.74040538344967,67.56756756756756,0.017109410156337913,100.0,0.8331899632536452,0,0,0,0,0,0,0
0.863,0.12118763886083621,0.0,0.049325604584824954,0.011272361147578153,1.4015792948596173,7.349768413403121,79.8936170212766,0.05428312360048585,100.0,0.7907827320021642,1,0,0,0,0,0,0
0.8570000000000001,2.322763078166027,0.0,0.021197354449237357,0.0358572698906158,1.920694757292617,31.836866680251383,59.523809523809526,0.019540543489961898,100.0,0.8648716387336521,0,0,0,0,0,0,0
0.603,0.08079175924055745,0.0,0.01457379788999856,0.030857048852137574,1.652245008413184,20.577741133958387,79.7872340425532,0.062351907798697856,100.0,0.85016267559062,0,0,0,0,0,0,0
0.9410000000000001,0.12118763886083621,0.0,0.07541822504575653,0.010740161478457721,1.9488741229367037,9.293474043231386,105.26315789473685,0.006800048886186763,100.0,0.8605849156289659,0,0,0,0,0,0,0
1.4420000000000002,0.2625732175318118,0.45999999999999996,0.025428277234914882,0.007551946291859753,1.7616025642919881,24.91166281304456,67.03918983700862,0.013430007981878416,100.0,0.8569186877438093,1,0,0,0,0,0,0
1.9949999999999999,0.14138557867097556,0.0,0.04924290998597501,0.018169937849100697,2.750523376843183,20.268259872048652,92.87925696594426,0.006208711600664092,100.0,0.9170371110409883,0,0,0,0,0,0,0
2.42,0.060593819430418104,0.0,0.14861880461746776,0.014062930280205827,0.13470753741653352,1.112636086546197,70.4225352112676,0.057299455596029766,100.0,0.5800300612920145,0,0,0,0,0,0,0
2.418,0.3433649767723692,0.0,0.0300362568968445,0.0006701800615802607,3.746126519243184,13.840711067403635,78.74015748031496,0.018767738032578116,100.0,0.9536896248387263,0,0,0,0,0,0,0
1.282,0.060593819430418104,0.0,0.025664468946701924,0.00896090554030448,0.9765931339842887,15.953015494807797,55.60709132137703,0.04602833476270199,100.0,0.794228669649489,1,0,0,0,0,0,0
1.2970000000000002,0.14138557867097556,0.0,0.01681671182310191,0.013455076350416432,1.9523835151352646,10.698042578761397,72.28915662650603,0.054748339292731124,100.0,0.8713786024666539,0,0,0,0,0,0,0
1.144,1.656231064431428,0.0,0.01416614258309978,0.010150840243701066,2.0053081280255283,23.908966758189774,70.58823529411765,0.10841220345855757,100.0,0.8718725897158882,1,0,0,0,0,0,0
1.576,0.08079175924055745,0.0,0.033800198195567795,0.027290193536599495,1.4733930990990771,10.72952406431856,49.423393739703464,0.03393898801371015,100.0,0.8363725139020634,1,0,0,0,0,0,0
1.611,0.6867299535447384,0.0,0.021859733870039543,0.00528651817397973,1.9680292790504272,24.701759564072137,66.2251655629139,0.07540867165347934,100.0,0.8713370790868551,1,0,0,0,0,0,0
0.567,0.12118763886083621,0.0,0.02870166113616253,0.00898818633267187,0.5703337739168893,9.052291389368158,85.71708463949844,0.21055824167686382,100.0,0.7418980575346451,0,1,0,0,0,0,0
0.8300000000000001,0.5453443748737629,0.0,0.014467519795274343,0.005706603960003051,1.5498956030754456,17.239154157891992,59.05511811023622,0.021567507048718227,100.0,0.8414382009947868,0,0,0,0,0,0,0
0.9670000000000001,0.14138557867097556,0.0,0.033438575302685944,0.009726557301708556,1.4445332039198058,10.710369137443106,61.98347107438017,0.012161876234443387,100.0,0.8339531161799483,0,0,0,0,0,0,0
0.382,0.04039587962027873,0.0,0.025194818172542075,0.0213773800274738,0.23850598249240682,0.0167054283819148,74.71991662634457,0.17750816271316572,100.0,0.5739702648656761,0,0,0,0,0,0,0
1.161,0.30296909715209047,0.0,0.04170932359307082,0.005341222761864157,2.0947639399235993,13.309685375054443,74.44168734491315,0.015932120228974687,100.0,0.8803716908680669,1,0,0,0,0,0,0
1.42,0.060593819430418104,0.0,0.03538674344993538,0.008181232644287845,1.5426792927827147,7.7250083700469006,63.09322671101401,0.026687178939770493,100.0,0.807723442458203,0,0,0,0,0,0,0
1.2610000000000001,0.3231670369622298,0.0,0.024235631736564896,0.028747185491365276,1.180419500396959,7.1092742650276435,91.32610508757298,0.014214519535409644,100.0,0.768297943944028,1,0,0,0,0,0,0
1.105,0.14138557867097556,0.0,0.035238265250410815,0.009192709253217074,1.217085967255448,4.130758133227339,85.22727272727273,0.00582605416820597,100.0,0.7271220586961893,1,0,0,0,0,0,0
0.714,0.12118763886083621,0.0,0.023635180192644576,0.014042450973441728,0.907337399563222,11.66551929211925,79.57559681697613,0.3972887330930871,100.0,0.7878224015967343,0,0,0,0,0,0,0
0.71,0.12118763886083621,0.0,0.06915987685418776,0.04023201887577221,0.10414194488730565,0.3947979590781294,86.95652173913044,0.00750239032726443,100.0,0.5660896073677459,0,0,0,0,0,0,0
2.2439999999999998,0.08079175924055745,0.0,0.019509314443425248,0.06212479216682491,1.0343197596353637,16.531629294605388,71.34373939599593,0.008507501852581196,100.0,0.7993580388351106,0,0,0,0,0,0,0
0.9989999999999999,0.8887093516461321,0.0,0.044484696054296884,0.0125931959523415,0.5562003051658262,2.2511053306044726,60.79083518107909,0.2616675145911211,100.0,0.6369805542373235,1,0,0,0,0,0,0
1.605,0.04039587962027873,0.16,0.04559624114162147,0.004186291513257937,2.2388897104805205,17.31666280099032,104.71236080992179,0.02528664092092094,100.0,0.8894795101057001,0,0,0,0,0,0,0
1.233,0.28277115734195113,0.0,0.06571508933371496,0.042875838075807284,0.6206749324865302,12.5107858657963,65.78947368421052,0.05576778745351388,100.0,0.7606312732028888,1,0,0,0,0,0,0
0.908,0.24237527772167242,0.0,0.038393141761751876,0.04636167216142124,0.29693957781025193,10.400767330744825,65.43145276377129,0.2651045295815893,100.0,0.7291126150416067,1,0,0,0,0,0,0
1.778,0.44435467582306604,0.0,0.018231911558722006,0.0013150162576011787,1.0446435790430126,16.82106776423254,55.248618784530386,0.2433603710716091,100.0,0.799548633989712,0,0,0,0,0,0,0
0.868,2.9488992122803475,0.0,0.025879880832136805,0.019579065670612066,0.6766506116563034,10.480539417284602,55.35055350553505,0.023933902293669946,100.0,0.7606427019037781,0,0,0,0,0,0,0
1.391,0.24237527772167242,0.0,0.10043180990067409,0.010082114166233783,0.9947699984121134,3.943263316776477,89.02077151335311,0.009268322414558217,100.0,0.7046488205405297,0,0,0,0,0,0,0
1.383,0.04039587962027873,0.0,0.07432183596719474,0.008386134071955606,0.6763154986883876,11.410186776375694,62.43557203371478,0.17538795342812658,100.0,0.7664278451040641,0,0,0,0,0,0,0
1.2,0.12118763886083621,0.0,0.02895240409795456,0.007586572924564405,1.235107980632026,27.3495147845741,59.40594059405941,0.02399060847965195,100.0,0.8167328546891358,0,0,0,0,0,0,0
0.369,0.3433649767723692,0.0,0.018622831450708918,0.006655681086696891,0.38673796362703367,1.3309858276308209,80.4289544235925,0.007587696113062449,100.0,0.6077390352590802,0,0,0,0,0,0,0
1.252,0.44435467582306604,0.0,0.0946702768567913,0.004255773105029299,0.41186445712402614,2.192883866515654,70.50538525269263,0.004840446699053077,100.0,0.6229341692300641,0,0,0,0,0,0,0
1.478,0.20197939810139365,0.0,0.020861937312341393,0.01165851581732999,1.230520973116245,11.988553921586137,72.46376811594203,0.018053901773276412,100.0,0.8161820775372232,1,0,0,0,0,0,0
0.818,0.24237527772167242,0.0,0.029520956137142083,0.0038991123189881264,0.8738978577464555,7.176667890547426,77.720207253886,0.4226289503431639,100.0,0.7421643387450559,0,0,0,0,0,0,0
1.076,0.08079175924055745,0.0,0.011176346841180405,0.019301235083073468,2.3160103159511487,36.02599791655156,61.7283950617284,0.19079935886543087,100.0,0.8942662879927629,1,0,0,0,0,0,0
0.583,0.08079175924055745,0.0,0.032187823260302416,0.02213955463642146,0.5835388067195333,3.3633314486632875,94.33962264150944,0.005319043186125809,100.0,0.657917293588824,0,0,0,0,0,0,0
1.2309999999999999,0.6665320137345991,0.0,0.014216218721425679,0.004021709180551886,1.5052196686186563,18.686697097773013,72.81553398058253,0.03787319445144484,100.0,0.837712252602145,1,0,0,0,0,0,0
1.194,0.060593819430418104,0.0,0.04654927597597415,0.024581556770308908,1.150747838141843,10.022085772467149,70.75471698113208,0.01579993841917592,100.0,0.8096232261372922,1,0,0,0,0,0,0
2.4490000000000003,0.14138557867097556,0.0,0.029857974986698118,0.11049115895808431,0.32578129278314044,25.33155212259243,92.5925925925926,0.014105256108633476,100.0,0.7321678989737607,0,0,0,0,0,0,0
0.474,0.08079175924055745,0.06,0.01752506082419856,0.015537747628221747,0.7662543715057127,2.405774165102258,147.1153846153846,0.1823856978938451,100.0,0.6608065229426369,0,0,0,0,0,0,0
2.386,0.3231670369622298,0.0,0.04708690529776725,0.027599688067483776,0.4873654515492783,9.331654322261208,64.58565072302558,0.006019034502448652,100.0,0.7376407578423457,0,0,0,0,0,0,0
0.948,0.08079175924055745,0.0,0.02983554188518256,0.00845682372615732,1.7233313739792895,9.94146209717004,78.94736842105263,0.011626953921659014,100.0,0.8545449503737674,1,0,0,0,0,0,0
0.853,0.060593819430418104,1.08,0.04076617796511762,0.01349093117063677,0.23099519990134376,8.350401343882831,69.60556844547564,0.02949326184173586,100.0,0.6960288100563802,0,0,0,0,0,0,0
1.179,0.12118763886083621,0.0,0.020113692424714925,0.0156383503452568,1.9360695674123212,22.606060576165213,68.96551724137932,0.009809887357813903,100.0,0.8703183377093325,1,0,0,0,0,0,0
0.746,0.44435467582306604,0.0,0.04386811375380945,0.005761991635064211,0.8462752886291435,17.476020306270854,47.84688995215311,0.026775865718110647,100.0,0.7815632748944417,0,0,0,0,0,0,0
1.659,0.12118763886083621,0.0,0.21490878689623982,0.005443599056660324,0.15100249988734887,0.47179682439983983,81.9672131147541,0.11296944746557283,100.0,0.5719220876833876,1,0,0,0,0,0,0
0.873,0.14138557867097556,0.0,0.0524610304149888,0.013260966477661545,0.5357595609868958,2.8306170044583725,103.09278350515464,0.4129430408897248,100.0,0.6451900449558436,0,0,0,0,0,0,0
0.895,0.14138557867097556,0.0,0.02017367053748213,0.015425569600850002,0.3494900317439802,4.8473373282529835,70.01252655084146,0.26137666837092005,100.0,0.657219042345628,0,0,0,0,0,0,0
4.059,0.04039587962027873,0.0,0.08351216575258764,0.008951215483466526,0.07786265756864338,1.5675613188796884,70.50538525269263,0.25136095007945713,100.0,0.5812171459197863,0,0,0,0,0,0,0
1.103,1.1310846293678045,0.0,0.03883108493171041,0.008068299103570278,0.35513387627304344,13.040602390696954,172.41379310344828,0.6903915732226601,66.66666666666666,0.6830862559052998,0,0,0,0,0,0,0
1.385,0.060593819430418104,0.0,0.01611240469057324,0.017444177469240034,1.6703512309724753,8.019306077041652,82.19178082191782,0.008977441382994717,100.0,0.8218445652910014,0,0,0,0,0,0,0
1.0270000000000001,0.08079175924055745,0.0,0.03925286240869935,0.005737514442605139,1.2455220537103735,4.848147045452869,84.50704225352113,0.05469266676532656,100.0,0.7404177312446815,1,0,0,0,0,0,0
1.129,0.2625732175318118,0.0,0.015062409358277358,0.060959540442204266,1.7579681139310177,28.428283692728606,56.71077504725898,0.01882716768123574,100.0,0.8575763514658199,1,0,0,0,0,0,0
0.9710000000000001,0.2625732175318118,0.0,0.1462545487741866,0.006252771134262156,0.10243534029046632,-0.47875469460398845,68.64988558352402,0.02196275823877889,100.0,0.5597144085092071,0,0,0,0,0,0,0
2.225,0.1615835184811149,0.0,0.024850029639107537,0.0074638360409788424,2.1530087861655116,22.32625230501935,56.60377358490566,0.006156992771262631,100.0,0.8843159493366417,1,0,0,0,0,0,0
1.3519999999999999,0.1615835184811149,0.0,0.11138127451557626,0.007379488890655498,0.4058719588388492,3.238672388888899,63.02521008403362,0.037252753469468346,100.0,0.6385982842833111,1,0,0,0,0,0,0
1.221,0.08079175924055745,0.0,0.08671734256253723,0.014870590403666869,0.5186565501741485,8.090596170303217,67.18933397538146,0.03681943919235149,100.0,0.7225523738091982,1,0,0,0,0,0,0
0.96,0.08079175924055745,0.0,0.027137560504049533,0.0062832779882787,1.670721212613411,2.5673460399666217,96.9307860945819,0.058850088047534055,100.0,0.740052307889726,0,0,0,0,0,0,0
1.937,0.08079175924055745,0.6799999999999999,0.32086348785877167,0.0036060308835534354,0.06831062169748069,-0.16339032468746595,72.11538461538461,0.026934088126044534,100.0,0.5553082983010358,1,0,0,0,0,0,0
1.152,0.12118763886083621,0.0,0.03755231721117179,0.009535050526158922,1.7583322381932656,3.8556336902493644,93.02884615384616,0.03211239058800307,100.0,0.7657199257425098,1,0,0,0,0,0,0
0.902,0.48475055544334483,0.0,0.026904277704889193,0.0070648041932543934,0.9701097639760238,15.481952285232797,65.21739130434783,0.06230983487647981,100.0,0.7927957497268155,1,0,0,0,0,0,0
1.0659999999999998,2.7469198141789537,0.0,0.0332041680144968,0.0033814522071339403,0.5654725744112273,5.378238463346571,55.405488366382215,0.018802637330039257,100.0,0.6810666916221555,1,0,0,0,0,0,0
1.484,0.3635629165825086,0.06,0.033453233492947036,0.0067682130818200546,1.644525606851543,17.297993025630024,74.07407407407408,0.018599846589062493,100.0,0.8488982683418711,1,0,0,0,0,0,0
0.787,0.12118763886083621,0.0,0.03506091673970163,0.020259924794124792,1.1554553098721263,16.68456182553213,63.829787234042556,0.26566013052935694,100.0,0.8099095558367075,1,0,0,0,0,0,0
0.9570000000000001,1.3330640274691983,0.06,0.027571373793686394,0.0015115564152006365,1.0353322030381553,10.82766297750997,191.0828025477707,0.4587547968513378,100.0,0.7968235869975286,1,0,0,0,0,0,0
1.5350000000000001,1.434053726519895,0.0,0.025511651342733525,0.016109042257762975,1.731384745245835,26.717824469104134,56.7125989879642,0.019020112813241,100.0,0.853304407222808,1,0,0,0,0,0,0
1.302,0.48475055544334483,0.0,0.07418006137554742,0.020307887473725847,0.42553548792810136,6.00280056669027,96.15384615384616,0.4383670311104472,100.0,0.68134294129962,1,0,0,0,0,0,0
1.208,0.2625732175318118,0.3,0.03912716352143257,0.005625943448358549,1.2860929661697194,17.65610824588869,66.96461936293926,0.03692125733323233,100.0,0.8201445573720906,0,0,0,0,0,0,0
0.707,0.04039587962027873,0.0,0.015467882058965413,0.030500746317226757,0.5618431320076793,1.2285927008810358,75.0,0.04448195592205702,100.0,0.6238846255902191,0,0,0,0,0,0,0
1.673,0.08079175924055745,0.0,0.039061724603072584,0.030807146576334765,1.2320250317737513,17.070849540389847,66.2251655629139,0.004315547484935975,100.0,0.8165521186602216,0,0,0,0,0,0,0
0.94,0.5453443748737629,0.0,0.036386820006012184,0.00705548682005999,0.7697361944057162,14.06245058088209,60.97560975609756,0.01220789051180255,100.0,0.7742371304324523,1,0,0,0,0,0,0
2.334,0.08079175924055745,0.0,0.25418400077414965,0.009359224660409317,0.23553188400396322,0.02538318034988407,61.224489795918366,0.14091808607986625,100.0,0.573724078294317,1,0,0,0,0,0,0
0.999,0.22217733791153302,0.58,0.03424195021195527,0.009015272481611183,1.5282307660554368,18.042902402478866,73.52941176470588,0.03023377091418333,100.0,0.8392413166747005,1,0,0,0,0,0,0
0.598,0.08079175924055745,0.0,0.008464581180387025,0.03153936456796401,1.1315702140875508,4.760369551693477,96.15384615384616,0.06274393341941402,100.0,0.729323375974216,1,0,0,0,0,0,0
0.7999999999999999,0.1817814582912543,0.0,0.03037268140956873,0.01129779575856604,0.9401311448649416,3.443510706711308,92.02453987730061,0.009256831679583374,100.0,0.6923409574550963,1,0,0,0,0,0,0
1.0,0.04039587962027873,0.0,0.05093882439000349,0.016059665321680468,1.5508610768032298,5.437213132983503,93.75,0.03130114533885621,100.0,0.7740810385876844,0,0,0,0,0,0,0
2.4419999999999997,0.12118763886083621,0.12,0.16209956938495765,0.005855473990269887,1.3181360697357452,12.297316864070721,86.08480856319474,0.011355543994172797,100.0,0.8234564168229959,1,0,0,0,0,0,0
2.432,0.12118763886083621,0.0,0.11220483957425494,0.005405109373094677,0.25858652564621043,11.145591284101368,73.52941176470588,0.105399313137895,100.0,0.7255524266544456,1,0,0,0,0,0,0
1.0670000000000002,0.08079175924055745,0.0,0.018865197820088137,0.011045059498860078,1.2957795827330167,4.953548187712943,83.33333333333334,0.02449274433504181,100.0,0.7462206626270497,0,0,0,0,0,0,0
0.86,0.5857402544940415,0.0,0.01934051852054165,0.00821532674032143,1.3350435443129893,19.486727288336613,64.79965290898657,0.03504864223087265,100.0,0.8241662174159325,1,0,0,0,0,0,0
1.3370000000000002,0.060593819430418104,0.0,0.05976698920384345,0.012336288342999241,0.9565873015509433,2.842868498087837,117.4172794117647,0.021868242252421864,100.0,0.6850652295865508,0,0,0,0,0,0,0
1.972,0.14138557867097556,0.06,0.03767537182874405,0.0010909351089915908,1.4575954569155598,14.702455406821663,74.25924564370266,0.11523054971483371,100.0,0.8348757787381035,0,0,0,0,0,0,0
1.5539999999999998,0.5655423146839023,0.0,0.03454896674063091,0.004244681616972093,1.8938663457513252,19.246421121044847,65.50343249427917,0.013923088441294276,100.0,0.8665506165118116,1,0,0,0,0,0,0
0.8300000000000001,0.42415673601292664,0.0,0.015132255016687225,0.006361051183409357,0.7482466583082746,8.684699198978898,60.607050007958506,0.24221202055608373,100.0,0.752732932934438,1,0,1,0,0,0,0
1.086,0.2625732175318118,0.0,0.04469239553502908,0.014145793097364953,0.9158738967372956,6.383860320717499,76.92307692307692,0.10645895828751821,100.0,0.73407697181374,0,0,0,0,0,0,0
1.0310000000000001,0.1817814582912543,0.0,0.07832529465970177,0.011647965543032105,0.5547354811401437,6.1601806288147,73.34963325183375,0.05209513706900399,100.0,0.6968889663301238,1,0,0,0,0,0,0
0.941,0.060593819430418104,0.0,0.08851146993615061,0.004545626499821454,0.28893476788833383,1.7564970514159226,60.60606060606061,0.11571962366103968,100.0,0.6050307372765834,1,0,0,0,0,0,0
0.975,0.14138557867097556,0.0,0.03544743817812318,0.021788521938175053,0.8470341655146011,8.419553020479233,91.88555347091932,0.39566149208682033,100.0,0.7585326588778141,1,0,0,0,0,0,0
2.149,0.4039587962027873,0.08,0.08451962426466907,0.0031369753352658942,1.9196411500350836,18.964681438021564,84.03361344537815,0.025651679751740982,100.0,0.8684775129291878,1,0,0,0,0,0,0
1.786,0.6867299535447384,0.0,0.03358369006954598,0.0018914738201185296,1.3286228472842083,19.302255707400395,49.09983633387889,0.05974148084273081,100.0,0.8234337683348776,1,0,0,0,0,0,0
1.971,0.38376085639264795,0.06,0.07586124178143319,0.0028533129579477773,2.2109126778097252,23.703774826018545,68.33748443337484,0.01833044189911054,100.0,0.8873059455479845,1,0,0,0,0,0,0
0.8839999999999999,1.1310846293678045,0.06,0.048574655199325224,0.005434311864587291,0.9212484579798309,13.14086670179266,67.41573033707866,0.04216993550817637,100.0,0.7869521031171564,1,0,0,0,0,0,0
1.005,0.08079175924055745,0.0,0.02754789211337226,0.05007298435003718,1.3696857794548711,7.238907118835366,81.63643095149945,0.02272308730934854,100.0,0.7866054077361876,0,0,0,0,0,0,0
0.8099999999999999,0.08079175924055745,0.0,0.014704178526871298,0.005124791366844696,0.9386380724360119,8.589728186876822,51.85829284472095,0.041687936843902644,100.0,0.769600624933129,1,0,1,0,0,0,0
2.173,0.08079175924055745,0.0,0.10592889919917477,0.004985690482632914,1.7887781822181976,12.173660117786323,81.52173913043478,0.02371695275499054,100.0,0.8601531633536175,1,0,0,0,0,0,0
1.625,0.08079175924055745,0.0,0.06015731092927732,0.001885034859175346,1.5007119023992672,20.139614348260626,64.37797886302411,0.023195922472003038,100.0,0.8385295449223222,1,0,0,0,0,0,0
1.4649999999999999,0.14138557867097556,0.0,0.1814916216454482,0.011433644260742034,0.04942037729630457,3.495535015578338,77.82114258798197,0.019923185893629052,100.0,0.6070918448062285,0,0,0,0,0,0,0
1.235,0.08079175924055745,0.22,0.04366674747039014,0.010890269936520406,1.100994440601033,15.982773030594664,66.44526421129055,0.011551852311115031,100.0,0.8048073875074009,1,0,0,0,0,0,0
1.2429999999999999,0.08079175924055745,0.0,0.11922282565019675,0.007074605966593212,0.2591205024438954,3.108864928176839,49.586776859504134,0.005966561618033983,100.0,0.6223191944342716,0,0,1,0,0,0,0
1.278,0.20197939810139365,0.0,0.06396726350554145,0.008135042621936114,1.0188368990902925,6.71893216620874,78.74883736952702,0.04098530280397968,100.0,0.7485193921307753,1,0,0,0,0,0,0
1.996,0.020197939810139363,0.06,0.07346993695057326,0.007760235124204713,0.7017200023426695,17.891589073915434,67.41573033707866,0.1695665573312027,100.0,0.7687592471273297,1,0,0,0,0,0,0
1.643,0.08079175924055745,0.12,0.13267327381092076,0.008533129779712788,1.5468225231995665,13.19877735616138,75.85444130470918,0.07782422582245004,100.0,0.8418892469468834,1,0,0,0,0,0,0
1.782,0.6059381943041809,0.0,0.03858963488522951,0.0020674838079727397,0.9632935900370637,16.734240942987213,50.808810875924976,0.025365276465107417,100.0,0.7919379069071948,1,0,0,0,0,0,0
0.936,0.08079175924055745,0.0,0.07017407557636368,0.028287288370325934,0.5878583850591335,4.136763297822383,96.7741935483871,0.029267865435009678,100.0,0.6699346741579055,1,0,0,0,0,0,0
1.974,0.8887093516461321,0.0,0.11349704430056058,0.016457763045368713,0.9273336659525128,12.631359641589242,76.33785489980252,0.034917840159629454,100.0,0.7881110792965053,1,0,0,0,0,0,0
2.222,0.060593819430418104,0.0,0.15071968967316776,0.004689922865535352,0.5907157663888574,4.641213825011402,64.03597495967853,0.022194900720473844,100.0,0.6778168185536511,1,0,0,0,0,0,0
1.557,0.020197939810139363,0.0,0.021618881174414604,0.005744143242838123,2.385261881049657,6.881123332566254,96.7741935483871,0.03523540130121815,100.0,0.8515608530291909,1,0,0,0,0,0,0
1.139,0.08079175924055745,0.0,0.04023284894892984,0.026746562680763676,1.6070175310771777,18.537381831442787,88.49557522123894,0.03568789877065457,100.0,0.8467499869306987,1,0,0,0,0,0,0
1.2950000000000002,0.04039587962027873,0.08,0.03774692840795898,0.004202977870847052,0.9003971886190805,13.492447676362175,69.93006993006993,0.08101964708597312,100.0,0.7871893387727901,1,0,0,0,0,0,0
0.8460000000000001,0.060593819430418104,0.0,0.060102146415311364,0.0067824786149585795,0.8209212468829924,7.348505232326579,74.81296758104737,0.09108589518298951,100.0,0.7402090868157118,1,0,0,0,0,0,0
1.9080000000000001,0.08079175924055745,0.3,0.0929676480224825,0.0019425604862115446,1.3467870826894506,17.60414663077251,76.33637211229669,0.03286267080839449,100.0,0.8255438965732094,1,0,0,0,0,0,0
0.76,0.24237527772167242,0.0,0.015704201152467567,0.009178727441115492,1.014540379313528,14.13145949433213,53.81516541929173,0.02513966051349941,100.0,0.7972707654628344,1,0,0,0,0,0,0
1.1989999999999998,0.14138557867097556,0.0,0.08990053881310574,0.022170835770677324,0.48548251117088104,5.142519404900504,61.53904415663107,0.01704067108821999,100.0,0.6749838676956106,1,0,0,0,0,0,0
1.61,0.060593819430418104,0.0,0.012149492783419851,0.003569666858129587,0.43142025924871114,9.48115645174291,88.23529411764706,0.27752046224339816,100.0,0.7349432268989837,0,0,0,0,0,0,0
1.441,0.12118763886083621,0.18,0.030280564066138903,0.0035995810628876882,0.31790577204186554,9.06755607544135,83.10249307479225,0.15873098140906225,100.0,0.7170830793804808,0,0,0,0,0,0,0
0.9440000000000001,0.8483134720258533,0.0,0.05300085179144543,0.02388924399897155,1.0483964220249915,4.5512701053746385,89.02077151335311,0.09427796075793256,100.0,0.7173428488240571,0,0,0,0,0,0,0
0.813,0.7877196525954353,0.0,0.03201174683334422,0.011419188577887103,1.2928711281427319,22.52774199266213,48.701298701298704,0.014501064444695675,100.0,0.8202608045690393,0,0,0,0,0,0,0
1.331,0.060593819430418104,0.0,0.03279828226351194,0.007765586194141441,2.0759784448025305,13.940616039172209,71.77033492822967,0.02089234982412379,100.0,0.8796570206422667,0,0,0,0,0,0,0
1.17,0.08079175924055745,0.0,0.04006308042088159,0.0202204433230197,0.5811969932074357,4.156283802710855,80.64516129032258,0.013045939930403556,100.0,0.6695860052970487,0,0,0,0,0,0,0
0.881,0.08079175924055745,0.0,0.04101332136033323,0.03383650731968217,0.7086899581402993,3.634596016151323,68.4151402627391,0.29211477797353036,100.0,0.6739368566940269,0,0,0,0,0,0,0
1.059,1.8582104625328215,0.0,0.016700784088212586,0.023605704067346137,1.2207799224474267,17.65845771762013,61.47540983606557,0.02227999179563476,100.0,0.8120415831947527,1,0,0,0,0,0,0
0.751,0.22217733791153302,0.0,0.030239030026462436,0.011029350792320076,1.4881337422097667,4.007536631356063,107.14285714285714,0.006150974182302983,100.0,0.747368918779103,0,0,0,1,0,0,0
1.367,1.6360331246212885,0.0,0.020256098074731384,0.00964299926915755,1.6572688312881567,20.104061240712422,55.97014925373134,0.03132275571409418,100.0,0.8474281201845639,1,0,0,0,0,0,0
0.739,0.28277115734195113,0.0,0.06714361517960092,0.005160082691285928,0.46616614254675287,2.196808271784474,73.80084966291864,0.012719157114737993,100.0,0.6286315884975081,1,0,0,0,0,0,0
2.0199999999999996,0.060593819430418104,0.0,0.22245822064325374,0.003430568845229957,0.0732179649549652,0.21327436765535568,71.09004739336493,0.25703628569700565,100.0,0.5603982709695299,0,0,0,0,0,0,0
0.9339999999999999,0.08079175924055745,0.06,0.03317387550227216,0.003441670138016178,1.1391878486176037,10.51823599904422,66.88971524021635,0.02225424857132362,100.0,0.8084601190883934,0,0,0,0,0,0,0
0.961,0.22217733791153302,0.0,0.02006676859278181,0.006762969059218488,1.233916979429248,5.1391419875451145,65.4326977965521,0.03022943996485021,100.0,0.7435169968122312,1,0,0,0,0,0,0
0.7030000000000001,0.08079175924055745,0.0,0.03200078560144581,0.004961834358028644,0.24028891750901055,3.632063606559588,78.12552982265775,0.13692931128979347,100.0,0.6282970087222397,0,0,0,0,0,0,0
0.764,0.04039587962027873,0.0,0.0542498672361141,0.009100498496953229,0.7542923803014626,4.905407509578492,101.35135135135135,0.029461130979263537,100.0,0.697379268107704,0,0,0,1,0,0,0
0.984,0.5857402544940415,0.06,0.06128383942083697,0.002663042604604412,0.456036042453597,3.334974084618109,92.02453987730061,0.13750582556740015,100.0,0.6439886875963771,0,0,0,0,0,0,0
0.904,0.1817814582912543,0.0,0.0876750398560781,0.020680585125766825,0.17564696612812117,0.6368369830210789,63.76202737498306,0.017056211738754833,100.0,0.5767336454238424,1,0,0,0,0,0,0
1.917,0.08079175924055745,0.0,0.05679136275990842,0.005223376716014687,1.788923598440777,8.377306152828087,98.36065573770492,0.011787009320080748,100.0,0.8358231444259917,0,0,0,0,0,0,0
1.115,0.020197939810139363,0.0,0.024646094767256863,0.013734363581771377,1.7511598509395006,6.811400597254394,66.3716814159292,0.02572890629930848,100.0,0.8097397854969127,0,0,0,0,0,0,0
2.15,0.14138557867097556,0.0,0.05287837444585071,0.0447429086586691,1.3825969304543673,21.45581741976658,87.84791891752842,0.034025608354274144,100.0,0.828954070431992,1,0,0,0,0,0,0
1.216,0.8079175924055746,0.0,0.12107633649584268,0.02847751352130027,0.31447760337446307,3.9335988463571363,66.88971524021635,0.007102218107287744,100.0,0.6387212243872583,0,0,0,0,0,0,0
1.866,0.12118763886083621,0.0,0.02159039575387631,0.007824103486171975,3.6851462544199634,23.43314112645179,72.28915662650603,0.05112315774888401,100.0,0.9523904425730445,1,0,0,0,0,0,0
1.185,0.6261361341143203,0.0,0.05725872592743604,0.011218139422210891,1.8285530529117808,10.61780872393371,94.9367088607595,0.022907739768015915,100.0,0.8618839763337358,1,0,0,0,0,0,0
0.5860000000000001,0.08079175924055745,0.0,0.018238706046679046,0.002781794469092104,0.7408067843722915,1.6273691694521517,115.38461538461539,0.012624902122126878,100.0,0.6468597304565472,0,0,0,1,0,0,0
1.1030000000000002,0.12118763886083621,0.0,0.045939358531962474,0.0077403277839394255,1.0551655909663027,5.226818782213005,61.34969325153374,0.013439526981035515,100.0,0.7295304153291854,1,0,0,0,0,0,0
1.706,0.04039587962027873,0.0,0.03314297198375602,0.01204169985192415,0.7381982898200441,16.31883553220447,83.9162480634712,0.05553314209331745,100.0,0.7722843645129225,0,0,0,0,0,0,0
1.046,0.12118763886083621,0.1,0.0730484550941436,0.015358685633714089,0.35186437043043206,1.908360860557722,82.64525529718901,0.20934681819607595,100.0,0.6132090101353956,0,1,0,0,0,0,0
1.135,0.2625732175318118,0.0,0.11927094206935239,0.001726510490220479,0.3268307504730553,2.2692474627797274,65.86240468868988,0.027567807883984226,100.0,0.6160679495588796,1,0,0,0,0,0,0
1.832,0.989699050696829,0.0,0.11465434227231058,0.005168567045617202,1.382937447603091,22.07478963563948,49.83388704318937,0.14176524769112478,100.0,0.8272851745441512,0,0,1,0,0,0,0
0.645,0.12118763886083621,0.0,0.02921261504280211,0.03249500525044252,0.4941082571047222,4.971497988811026,82.64713694835504,0.015172117043933063,100.0,0.6732989265301864,0,0,0,0,0,0,0
1.33,0.08079175924055745,0.0,0.07395461631400166,0.004045663777783032,0.7568242973240338,5.174035826709295,54.54545454545454,0.03581585501600789,100.0,0.7015656883814954,0,0,0,0,0,0,0
1.155,0.060593819430418104,0.0,0.029740573026219463,0.004824249997482522,0.5351674235907319,1.5008000458268205,86.58892128279884,0.14023302987185146,100.0,0.6253470074275579,0,0,0,0,0,0,0
0.9119999999999999,0.7473237729751565,0.0,0.021944295113445665,0.005284949753811602,1.8769388850524205,27.337251665937327,51.32896200456648,0.030493347317714574,100.0,0.865019473150367,1,0,0,0,0,0,0
1.089,0.6867299535447384,0.0,0.03421579410539616,0.0037112231874855467,1.3155057634305776,34.497339865202655,48.78048780487805,0.01985854216931282,100.0,0.8223471155465198,1,0,1,0,0,0,0
0.744,0.12118763886083621,0.0,0.04129852729357733,0.06963766931151388,0.7217611596966594,2.6830297546931456,69.60556844547564,0.016341448481351828,100.0,0.6608181217773431,0,0,0,0,0,0,0
2.097,0.04039587962027873,0.06,0.018548415542722005,0.002100586040409921,6.8862928493837,12.504669255624403,99.33774834437087,0.023581017973335384,100.0,0.9937738631729698,1,0,0,0,0,0,0
0.984,0.5251464350636236,0.0,0.0390564131429436,0.004815692433573274,0.7793180694970361,10.633104055828591,55.097580226259296,0.01501796170836293,100.0,0.7751745799681047,1,0,0,0,0,0,0
1.3850000000000002,0.12118763886083621,0.0,0.036164423371074735,0.009523041380952266,1.57571762834756,13.965848422292297,73.34963325183375,0.036762613665576004,100.0,0.8442776796177645,1,0,0,0,0,0,0
1.5019999999999998,0.04039587962027873,0.0,0.029617846890262995,0.004683163553601975,3.0501465311135996,13.050473247262676,87.2093023255814,0.043675559100429036,100.0,0.9304768158387398,0,0,0,0,0,0,0
1.206,0.060593819430418104,0.0,0.06989634826097557,0.04866654138144385,0.8340997552735852,6.174960294463876,68.4931506849315,0.003413920969440277,100.0,0.7238283672813025,0,0,0,0,0,0,0
3.71,0.12118763886083621,0.0,0.10198310187874612,0.019806188983908953,0.9941646278945944,19.47094558110605,61.601642710472284,0.011379574448277252,100.0,0.7956879025152048,0,0,0,0,0,0,0
1.413,1.2320743284185012,0.0,0.0903691238149603,0.005031669645317129,0.4828538118967946,2.880380059627857,69.12442396313364,0.23745753569543415,100.0,0.6386142597954617,1,0,0,0,0,0,0
1.512,0.3231670369622298,0.0,0.0895510003089488,0.005109871203431453,1.7811812518252483,8.465935451884203,97.7198697068404,0.011734028664057983,100.0,0.83611395871493,0,0,0,0,0,0,0
2.668,0.14138557867097556,0.0,0.04050923581679889,0.005576823245149624,2.3120814339698907,25.270408157301787,72.63922518159806,0.0037380094114357063,100.0,0.893917041353774,0,0,0,0,0,0,0
1.299,0.14138557867097556,0.0,0.03673592612264562,0.018950711132055206,2.142564020924142,20.169544739708552,77.62083277547194,0.009322404804040176,100.0,0.883706121128253,1,0,0,0,0,0,0
0.631,0.08079175924055745,0.0,0.027570273821979897,0.00987070600098775,0.5432032804850035,0.8608037806117199,75.66505095225372,0.1087861354591836,100.0,0.6164848440918386,1,0,0,0,0,0,0
0.766,0.060593819430418104,0.0,0.05250190453665583,0.012067925125000403,0.5381076180638129,4.1427436845985905,59.05511811023622,0.06753180392120049,100.0,0.6652609705824147,1,0,0,0,0,0,0
1.2690000000000001,0.5655423146839023,0.0,0.024568935551229687,0.02835872055597845,1.5642078664050896,18.9351763546392,80.00910325797068,0.049238348290240014,100.0,0.8425034656161318,1,0,0,0,0,0,0
0.683,0.22217733791153302,0.0,0.08257870424423105,0.02709817640867169,0.17624642014566455,-0.09032571683278245,71.94244604316548,0.01932056019963092,100.0,0.5671600385989612,1,0,0,0,0,0,0
1.242,0.14138557867097556,0.0,0.12708672410207816,0.011261776070620228,0.26915961724973086,2.1212518320770073,79.5778364116095,0.09252055496564782,100.0,0.6083799784300531,0,0,0,0,0,0,0
0.9359999999999999,0.44435467582306604,0.0,0.014391176177296211,0.01301341659889739,2.6128747204025218,17.8819861612607,86.45604943193143,0.017332320066976267,100.0,0.9096694889521264,0,0,0,0,0,0,0
1.0270000000000001,0.22217733791153302,0.0,0.024402721408655466,0.012525945967214944,2.115854432656689,16.045931761362528,62.64385854781335,0.3074888122936654,87.5,0.8631191087613538,0,1,0,0,0,0,0
1.581,0.04039587962027873,0.0,0.054504819924087976,0.00799443047220561,1.3044122814143244,7.091990475360436,56.5504743630743,0.003189754596960546,100.0,0.7790975634410792,0,0,0,0,0,0,0
1.43,0.24237527772167242,0.0,0.03218443160676968,0.005950227044233495,1.5851381582867838,20.80911142757002,63.49384098544233,0.020541193402326092,100.0,0.8447576426756296,1,0,0,0,0,0,0
1.205,0.6261361341143203,0.0,0.06275067406816555,0.003698083144429635,0.9868715824149746,16.730908641845563,59.28853754940712,0.011142851432542926,100.0,0.7940227652578653,0,0,0,0,0,0,0
1.171,0.7877196525954353,0.0,0.03578614029054965,0.002285411449227921,0.7922256775948237,15.03480546903464,52.083961274610274,0.013737087999222207,100.0,0.775855539287015,0,0,0,0,0,0,0
1.4249999999999998,0.08079175924055745,0.0,0.03175563680633878,0.002570909038349769,2.400553279477056,17.348212018044517,75.28242717346129,0.017568919159846215,100.0,0.8990803751490308,1,0,0,0,0,0,0
1.8379999999999999,1.7370228236719853,0.0,0.026812532009283012,0.005369154552093853,2.3072447936776923,31.133353914916277,59.34863261376623,0.01717388539359609,100.0,0.8904444839189765,0,0,0,0,0,0,0
1.345,0.060593819430418104,0.58,0.08259447524886153,0.0021160825537324362,0.5044880272318152,4.8546465142292154,67.41573033707866,0.05502811507647272,100.0,0.671517089063802,1,0,0,0,0,0,0
1.179,0.12118763886083621,0.0,0.03328719901302557,0.023791325643457154,1.889294950850337,27.96724969481765,58.4797543774319,0.011917585343875289,100.0,0.8671247349091425,1,0,0,0,0,0,0
2.2199999999999998,0.10098969905069682,0.0,0.09430342071833607,0.002269799817118747,1.3282975247368423,15.6698909531077,55.6846461618842,0.27170891328306773,100.0,0.824578345929583,0,0,0,0,0,0,0
1.151,0.060593819430418104,0.0,0.021825530859693465,0.007935735431147737,1.8478842069035983,12.920194786695701,64.72680215616359,0.018098106259111135,100.0,0.8643717720710633,1,0,0,0,0,0,0
0.623,0.08079175924055745,0.0,0.02399923043263199,0.010730366863938225,0.92452430841403,9.2069900046301,96.46302250803859,0.17568243904603317,100.0,0.7775759787081865,0,1,0,0,0,0,0
1.0350000000000001,0.12118763886083621,0.0,0.019328608731859997,0.008886194621608764,2.4910339608374246,11.460452146060227,71.09004739336493,0.012375769689581043,100.0,0.9039559323120406,0,0,0,0,0,0,0
1.088,0.22217733791153302,0.0,0.02229171211701888,0.0069244153279302365,1.2544136217526543,7.602370449101814,54.74470784507646,0.00397347214181149,100.0,0.7821993617659053,0,0,0,0,0,0,0
1.6549999999999998,0.3635629165825086,0.1,0.19092472141267972,0.0025498067536937233,0.08017230807546954,0.8072334846317974,101.19453924914676,0.21392667960441372,100.0,0.569196699213201,0,1,0,0,0,0,0
1.33,0.5049484952534842,0.0,0.025157801351030747,0.007203965476314018,1.9397842470209103,24.774741254499613,55.72111504314894,0.08081034378161195,100.0,0.8698020363269606,1,0,0,0,0,0,0
0.896,0.5655423146839023,0.0,0.029113995296158303,0.013666177047918086,0.8545431457867674,8.775253187973032,69.60556844547564,0.045526959889307106,100.0,0.7637134498074983,0,0,0,0,0,0,0
2.678,0.08079175924055745,0.06,0.04745623698635827,0.009437731081475095,2.0374513293090106,29.55953168216896,72.81553398058253,0.05067522356030969,100.0,0.8770084615386415,1,0,0,0,0,0,0
0.875,4.241567360129267,0.0,0.019524603390083325,0.001540916111526148,1.1258892317799793,9.816600598156185,72.63922518159806,0.03288797954430098,100.0,0.7963505891846748,0,0,0,0,0,0,0
0.863,0.060593819430418104,0.0,0.027370369747079216,0.006337013971042452,1.690458471954001,12.323776123810841,76.92307692307692,0.0038488733912022993,100.0,0.853046643023915,0,0,0,0,0,0,0
1.059,0.28277115734195113,0.0,0.011307260692384863,0.006467863816009341,2.0171752816814283,10.202965242752827,63.025488248924205,0.012640007513185975,100.0,0.875399751178899,1,0,0,0,0,0,0
0.772,1.7370228236719853,0.0,0.03547582980553877,0.0056463890962303925,0.9941663911367605,12.940280895158338,54.55194667795175,0.07925622296276182,100.0,0.7924563904403867,0,0,0,0,0,0,0
1.018,0.5453443748737629,0.5599999999999999,0.05535068751949398,0.02260218388195682,1.1872360771360047,13.815711055044943,92.3085662349466,0.014865312202680631,100.0,0.8106801074528922,0,0,0,0,0,0,0
1.2550000000000001,0.42415673601292664,0.13999999999999999,0.02977781801876274,0.005217134485198762,1.1902037431525732,18.983723342651114,65.64834322926643,0.18854387104605602,100.0,0.8120171312120127,1,1,0,0,0,0,0
0.893,0.08079175924055745,0.0,0.010227114913018023,0.03271378376316954,1.4213136978623218,8.080199178455766,77.92207792207792,0.011769393628196973,100.0,0.8034138118404093,0,0,0,0,0,0,0
0.692,0.1817814582912543,0.0,0.02533262504711767,0.0026959034933663932,2.2996005565988633,8.734037194839027,76.92307692307692,0.014910487183296454,100.0,0.8741197642092629,1,0,0,0,0,0,0
1.7349999999999999,0.08079175924055745,0.0,0.10253134457187457,0.026243909335828822,0.6091868688619188,2.454916990673441,73.34963325183375,0.024980481669396808,100.0,0.6467571289191695,0,0,0,0,0,0,0
1.256,0.060593819430418104,0.0,0.04162112165371431,0.005639511374193338,1.5381402237318176,23.06813600316818,58.8235294117647,0.022458578507573462,100.0,0.841495809517999,1,0,0,0,0,0,0
1.119,1.0906887497475257,0.38,0.07564042251321733,0.006815633568404126,0.4883626088246904,7.240692506263597,64.93506493506493,0.027585287749838143,100.0,0.7040784116563896,1,0,0,0,0,0,0
0.901,0.04039587962027873,0.0,0.028408596590011843,0.0037773022658783356,1.3623232389539641,2.899363206966501,152.28426395939087,0.05769766596718363,100.0,0.7209905715018361,0,0,0,0,1,1,0
1.015,0.04039587962027873,0.0,0.016461203347993617,0.006184026652536898,1.5669177572888606,14.444190007635449,90.23556231003039,0.22838449633382746,100.0,0.8437625378416783,0,1,0,0,0,0,0
0.584,0.48475055544334483,0.0,0.03229618112150603,0.012027951167146516,0.5629774117630396,5.516018430947067,75.18796992481202,0.005427636198081074,100.0,0.6874168353092491,0,0,0,0,0,0,0
1.443,0.04039587962027873,0.0,0.0576635542605964,0.0031045312827426745,2.035055497538408,15.671057241257358,88.23529411764706,0.05600455340099459,100.0,0.8770532689917072,1,0,0,0,0,0,0
1.538,0.8685114118359927,0.0,0.011918812378172414,0.003197894000640179,1.8893117631545822,22.109292965063027,68.80733944954129,0.012674557791852992,100.0,0.865631245321045,1,0,0,0,0,0,0
1.251,0.6463340739244596,0.13999999999999999,0.03240241097624248,0.0018323024100725103,2.536001663817636,19.791897539412158,78.32951570680629,0.013215788513188713,100.0,0.9050145070812233,0,0,0,0,0,0,0
0.935,0.2625732175318118,0.0,0.030342400459752707,0.0028861339176991033,1.0540600364556043,9.185694351310156,63.694554633970434,0.014586497812497788,100.0,0.7885328330165479,1,0,0,0,0,0,0
1.3890000000000002,0.38376085639264795,0.0,0.028888743851180503,0.0094235070785453,2.035369305394285,18.60809808776264,73.34963325183375,0.0356900159126871,100.0,0.8763869783563024,1,0,0,0,0,0,0
0.846,0.08079175924055745,0.0,0.025655912332355757,0.008953731723574287,2.0062549318962315,12.131592511180987,97.0873786407767,0.010398594282740807,100.0,0.8750858514102478,0,0,0,0,0,0,0
1.286,1.7976166431024034,0.0,0.062367178726273544,0.0036056468751926246,1.5155114690281,16.187493707334887,66.46874079890077,0.0860092511900364,100.0,0.8362568912006587,1,0,0,0,0,0,0
1.041,0.12118763886083621,0.1,0.08263461912915533,0.0019455007208831836,0.2262496854116819,1.231830172011252,97.7198697068404,0.07663547523600268,100.0,0.5906172488472904,0,0,0,0,0,0,0
0.622,0.8079175924055746,0.06,0.014383143637614455,0.0018182260892680721,1.6286097946767513,7.543753796404529,91.46341463414633,0.003147579419283239,100.0,0.8099676686726053,0,0,0,0,0,0,0
0.565,0.060593819430418104,0.0,0.06052929336305412,0.03673725896077858,0.22124825513253468,-0.16849271863154547,79.57615670381628,0.1951319575245296,100.0,0.571963612813387,0,0,0,0,0,0,0
4.122999999999999,0.08079175924055745,0.06,0.32177429143682235,0.003472863827909281,0.21975399533129722,2.4557122396782978,72.28915662650603,0.28987994543240664,100.0,0.6084902788981341,0,0,0,0,0,0,0
1.28,0.04039587962027873,0.0,0.017548618109206462,0.0032706943756081867,1.2116494676959768,18.608885285724778,69.12589194699287,0.07026214458230508,100.0,0.8148991970875225,0,0,0,0,0,0,0
0.9179999999999999,0.04039587962027873,0.08,0.02268384512511197,0.012294876313303907,1.8669611847026728,7.108884021325137,156.25,0.16141349680453296,100.0,0.8222149352046498,0,1,0,0,0,0,0
1.276,0.2625732175318118,0.0,0.10734001326724517,0.04613780347053047,0.2755692681813918,2.4240967237732196,77.51937984496124,0.10430596526467979,100.0,0.6133159871339725,1,0,0,0,0,0,0
1.568,0.30296909715209047,0.0,0.06363304415679842,0.01438268730604215,1.5311725256673439,12.143367081690254,96.7741935483871,0.05422828908902733,100.0,0.8404689622184363,1,0,0,0,0,0,0
0.8079999999999999,0.060593819430418104,0.0,0.0793681927942219,0.019924016158925365,0.19668524636776774,1.9008992263860343,56.02245780443576,0.01925723401985198,100.0,0.5980326930738893,1,0,0,0,0,0,0
1.24,0.08079175924055745,0.0,0.08630462348618041,0.0075154122816475455,0.5789613371028477,7.463064079372586,80.86253369272237,0.025613625419905636,100.0,0.7189722984995821,1,0,0,0,0,0,0
1.334,0.12118763886083621,0.0,0.03226551910118057,0.006197455048402188,0.8111169769611392,8.369983813765604,66.68774328676717,0.07037231627265539,100.0,0.7544987572885756,1,0,0,0,0,0,0
0.835,0.8079175924055746,0.0,0.05136479002062363,0.0037952545198774003,0.6984206665989253,4.159340571223079,52.4937999448884,0.15112270185335933,100.0,0.6793813168197587,0,0,0,0,0,0,0
0.9169999999999999,0.20197939810139365,0.0,0.03957779776299561,0.009850686814123715,0.5318508658732858,3.81633469082359,64.03480796391635,0.08086363076410097,100.0,0.6594758718282169,1,0,0,0,0,0,0
1.306,0.14138557867097556,0.0,0.027285755194791615,0.0032164020419262083,1.236889404324364,11.310346223536836,65.00549342197931,0.03893396842388967,100.0,0.8168434822108019,1,0,0,0,0,0,0
1.151,0.22217733791153302,0.0,0.053412454058893166,0.005751316897923919,0.6593865808643847,1.9994885156296451,79.156223893066,0.02378426270076837,100.0,0.6444449227185072,1,0,0,0,0,0,0
1.066,0.04039587962027873,0.0,0.030744684358466653,0.008854302760025221,2.0859260888299476,13.284149276905264,88.49557522123894,0.013660309397565774,100.0,0.8803336810791411,1,0,0,0,0,0,0
2.539,0.7473237729751565,0.0,0.033648320099220946,0.004690677649858198,1.4591770491452516,14.02530281062036,53.53901996370236,0.08835027570984699,100.0,0.8339098720695144,1,0,0,0,0,0,0
1.359,0.1817814582912543,0.06,0.030660666930594226,0.002584581285374362,1.0141045532611914,10.118040332672285,103.98644752018456,0.3649371150019833,100.0,0.7972329962249965,0,0,0,0,0,0,0
3.282,0.060593819430418104,0.0,0.2338431460752615,0.0024937344972082356,0.562428190487122,8.28881674863568,54.44646098003629,0.06325718604139867,100.0,0.7298040892352187,1,0,0,0,0,0,0
2.044,0.22217733791153302,0.06,0.07795034818909799,0.0022609415563318537,0.9710273881609376,12.184424117470666,57.58157389635316,0.03324531833980195,100.0,0.7932836865734626,1,0,0,0,0,0,0
1.7009999999999998,0.10098969905069682,0.0,0.04324238729378847,0.0022491116790850753,2.2533460519966746,14.523931151265131,84.03361344537815,0.08545703919830569,100.0,0.8905421856349636,1,0,0,0,0,0,0
2.005,0.060593819430418104,0.0,0.07385908383052195,0.00768183638594422,1.223825782553656,7.830048780583327,81.96782501586354,0.04356993319888581,100.0,0.783346683406076,1,0,0,0,0,0,0
1.157,0.060593819430418104,0.0,0.060308889809744776,0.03166328279571926,0.4136260191115741,5.1748877757841125,64.72499441423996,0.007409865246740536,100.0,0.6686046129921888,1,0,0,0,0,0,0
1.165,0.04039587962027873,0.0,0.07440458317749264,0.026993282177021693,0.36177815676288744,1.3597715726307174,87.08291203235592,0.040467595672557255,100.0,0.6063192384761124,0,0,0,0,0,0,0
1.095,0.42415673601292664,0.0,0.05726166613933563,0.00357851150378616,1.0403306133393722,10.321728574154909,72.81553398058253,0.016639661791639143,100.0,0.799205891076486,1,0,0,0,0,0,0
2.352,0.8483134720258533,0.0,0.052304672963138246,0.004542446592496815,1.1517715129102841,15.57239610896379,62.24066390041494,0.05248630885814961,100.0,0.8081364443817152,1,0,0,0,0,0,0
1.091,0.1817814582912543,0.36,0.06264521722175025,0.03797397731009894,0.4483353498435106,12.342671674819087,50.59021922428331,0.0382157351331016,100.0,0.7434191587118174,1,0,0,0,0,0,0
1.63,0.060593819430418104,0.0,0.05847025950590011,0.015708214468134522,1.38225617616696,23.025972776753242,65.78947368421052,0.03069365831529732,100.0,0.8290879008672467,1,0,0,0,0,0,0
1.302,0.44435467582306604,0.0,0.025917372442768365,0.00844473349983979,2.63612355198099,21.479329095961287,69.44444444444444,0.04635938457029039,100.0,0.9108427103566895,1,0,0,0,0,0,0
1.748,0.2625732175318118,0.0,0.12235440752875476,0.004487948081289323,0.581698169873843,8.467970648887496,66.3120255576072,0.05784855862253864,100.0,0.733946026253147,1,0,0,0,0,0,0
1.565,0.9089072914562714,0.06,0.024099103603284197,0.002529039433705767,1.9603867845226475,24.745503015151133,57.69230769230769,0.03967431377581106,100.0,0.8702610227555039,1,0,0,0,0,0,0
1.452,0.14138557867097556,0.0,0.030974748775697378,0.009488678943795566,1.8456657831120955,16.249490835779408,96.7741935483871,0.018308960839195337,100.0,0.8640549787858238,0,0,0,0,0,0,0
1.582,0.04039587962027873,0.0,0.07367010864927487,0.021146925931970477,0.8669169527873251,9.630639200115878,72.81553398058253,0.17829417117058777,100.0,0.7787353941943719,0,0,0,0,0,0,0
1.4729999999999999,0.14138557867097556,0.0,0.049373340671786746,0.006976460938611623,0.9871206301462384,12.121984800232802,68.49457881567974,0.066876207369196,100.0,0.7950146586746502,1,0,0,0,0,0,0
0.5249999999999999,0.28277115734195113,0.0,0.019601136524121533,0.012297492716371523,0.6287861806599363,3.9526541072231787,66.2264564703589,0.021436744130851587,100.0,0.6706980269660642,0,0,0,0,0,0,0
1.168,0.3635629165825086,0.0,0.13705414952279588,0.0150618256863208,0.12041906410374961,0.6168476713458779,44.2863239302915,0.09211397258745228,83.33333333333334,0.5455610325280212,1,0,0,0,0,0,0
1.512,0.12118763886083621,0.0,0.0999438126214529,0.011771629075319558,0.497615841179967,6.933712794965034,83.9095277159264,0.13309680335691387,100.0,0.7030734961749079,0,0,0,0,0,0,0
1.164,0.24237527772167242,0.0,0.04269745758441638,0.006733406503138122,1.149623923643504,21.202836453119684,45.59270516717325,0.019786514254980677,100.0,0.8091622987010201,0,0,0,0,0,0,0
0.869,1.2926681478489193,0.0,0.028366962895377112,0.006366877720011855,1.0371273442092663,19.52255615479637,63.42494714587738,0.023747630705479913,100.0,0.7971840705027364,1,0,0,0,0,0,0
1.4509999999999998,0.04039587962027873,0.06,0.09722625566581361,0.06768614845636499,0.1563287178198608,2.532865299957308,70.50538525269263,0.20880070311187568,100.0,0.6034109250015741,0,0,0,0,0,0,0
0.6890000000000001,0.08079175924055745,0.0,0.029850118172377944,0.059577721587191906,0.8962828836305702,1.4626598302891507,111.94029850746269,0.2151366268412277,100.0,0.6588318079606018,0,0,0,0,0,0,0
1.757,0.5453443748737629,0.0,0.03719110211791321,0.00805058377289984,2.3107575534694407,30.113416225542025,71.53238259605777,0.06926072881911816,100.0,0.8930321895792254,1,0,0,0,0,0,0
1.1239999999999999,0.12118763886083621,0.0,0.04512215278739402,0.023131857920019358,1.3025085183250407,15.968786710053617,81.52173913043478,0.02565374704469391,100.0,0.822397602817719,0,0,0,0,0,0,0
1.021,0.12118763886083621,0.0,0.04302515421092306,0.00662457554533538,1.575367193708338,11.473338630660923,73.52941176470588,0.01922939582028975,100.0,0.8442507670774172,1,0,0,0,0,0,0
1.463,0.08079175924055745,0.0,0.05446758228585669,0.00974444039751244,1.0440662514547254,5.0430574669448,54.34943139861172,0.04326598321766315,100.0,0.7258703567485918,0,0,0,0,0,0,0
1.5190000000000001,0.22217733791153302,0.0,0.04404535618111237,0.0055477154671599565,2.5307238451961975,13.9615124399578,98.68527836390197,0.010641814954966796,100.0,0.9058649780672784,1,0,0,0,0,0,0
1.382,0.12118763886083621,0.0,0.05504497195832457,0.021014330647801865,1.0184310749350012,13.004107986157475,70.2576112412178,0.06145386876660643,100.0,0.7978607520577762,1,0,0,0,0,0,0
1.815,1.555241365380731,0.0,0.0909071677861683,0.002485515659979728,1.0760267721070462,14.744855209726886,65.58324891530802,0.07463104809355388,100.0,0.8001035948842824,1,0,0,0,0,0,0
1.452,0.5251464350636236,0.0,0.05349138754379532,0.007257978620951457,0.6420820578997277,16.748702238905523,54.15162454873646,0.05626434002250013,100.0,0.7621951398108647,1,0,0,0,0,0,0
1.354,0.6261361341143203,0.3,0.10073204515127017,0.001262359430215608,0.9376812542947127,8.977390710368024,76.33587786259541,0.017051409144625152,100.0,0.7736379714245133,1,0,0,0,0,0,0
1.924,0.08079175924055745,0.06,0.026631712709477433,0.024273802447473937,0.9485669579835424,11.779520220031392,61.60398043514927,0.16676850937036058,100.0,0.7915354951316576,1,0,0,0,0,0,0
1.2109999999999999,0.8079175924055746,1.1400000000000001,0.010644285160569611,0.0015979278330237395,1.7044269028322794,17.999240456988073,66.3003663003663,0.057914677387036366,100.0,0.8503022655264686,1,0,0,0,0,0,0
1.7559999999999998,0.3231670369622298,0.0,0.08106931527831868,0.005112157677478237,1.5333790974885328,16.054905346356822,83.11843801805121,0.0707613914897462,100.0,0.8406003690959664,1,0,0,0,0,0,0
1.186,0.1817814582912543,0.0,0.06984316982562168,0.0508305383350077,0.7463231584651313,6.96774723683275,78.53456960177627,0.030362145319804378,100.0,0.7272825121857868,1,0,0,0,0,0,0
1.135,0.04039587962027873,0.0,0.07002969169273872,0.007727784168696062,1.1520634947172543,12.049665893696092,70.09345794392523,0.05813243818905269,100.0,0.8097775632182562,0,0,0,0,0,0,0
1.4929999999999999,0.7473237729751565,0.0,0.10163314868015903,0.006349988635638801,0.5548052387689241,6.601724927235473,59.642147117296226,0.06102187410752828,100.0,0.7023877887268164,1,0,0,0,0,0,0
1.725,0.3231670369622298,0.13999999999999999,0.14640017406664518,0.006041535238947256,0.5153456267570965,5.172789239405855,68.80878732403258,0.11326430433756715,100.0,0.677699068596385,1,0,0,0,0,0,0
2.13,0.1615835184811149,0.0,0.06327067471461466,0.0053461521673011025,2.4067299570822627,20.168396203220272,80.25062226418333,0.0509628202271985,100.0,0.8992635455092213,1,0,0,0,0,0,0
0.837,1.1108866895576652,0.0,0.01922984135786924,0.006658217310677324,1.4508443047792872,7.897140598223055,55.4530545305453,0.018984706836135,100.0,0.8009755004246164,1,0,0,0,0,0,0
1.903,0.14138557867097556,0.0,0.0370784555487385,0.0020696191465467864,1.4381579647118148,10.123894000689974,66.07929515418502,0.017989766819398508,100.0,0.8334427490425234,1,0,0,0,0,0,0
1.314,1.3734599070894769,0.0,0.02972497027662147,0.017416947249668205,1.8918595072986713,19.42651762460045,57.637366287954286,0.013964297804248259,100.0,0.8647967420934586,1,0,0,0,0,0,0
0.492,0.14138557867097556,0.0,0.014736304270898379,0.018227490569425672,0.41066365287603407,1.5171548894313478,86.20689655172414,0.41340897740288357,100.0,0.6132863210559122,0,0,0,0,0,0,0
1.0,0.12118763886083621,0.0,0.027830785723615994,0.010415981217561118,2.0063385002048872,8.177208601468925,94.04388714733543,0.015413327780851485,100.0,0.8476686937234689,0,0,0,0,0,0,0
0.7330000000000001,0.12118763886083621,0.0,0.03534172791280793,0.006799993218130281,1.0043420145644772,3.5766352982779726,94.9367088607595,0.0037352540300706074,100.0,0.7002501119650196,0,0,0,0,0,0,0
0.752,0.22217733791153302,0.18,0.03883165875101234,0.008909383265868612,0.31946915879151744,6.041523479099149,50.890914741531134,0.018208444394298907,100.0,0.67164519867224,1,0,0,0,0,0,0
0.8200000000000001,0.12118763886083621,0.0,0.02754107516824296,0.010031917737566528,0.8698148326974043,10.82819883962058,67.64382893051064,0.014311414690375604,100.0,0.7843810254288426,1,0,0,0,0,0,0
1.053,0.08079175924055745,0.0,0.022334060981198056,0.041189717854857116,2.0728014200119707,13.755538431419264,85.22727272727273,0.006819097657899319,100.0,0.8794128842725446,0,0,0,0,0,0,0
1.92,0.30296909715209047,0.0,0.017942986681079225,0.001750416889127239,0.7201651336484665,11.006323803474311,67.19135616685728,0.07266049986005631,100.0,0.7700583840276075,0,0,0,0,0,0,0
1.056,0.08079175924055745,0.0,0.014473279131804143,0.00576301464078482,0.6627284089581339,3.855198158035191,138.24884792626727,0.3604863480807091,100.0,0.6728818061254432,0,0,0,0,0,0,0
1.67,0.3433649767723692,0.0,0.07815955924506142,0.017250355222109937,0.8413206874833158,8.097246659195863,66.97629916080291,0.03927050784828316,100.0,0.7527657120520725,0,0,0,0,0,0,0
0.9510000000000001,0.20197939810139365,0.0,0.03060807276291549,0.01678759925368085,1.2854534952073315,23.642395380204295,55.87799883782064,0.1323117517936091,100.0,0.8208122425033396,0,0,0,0,0,0,0
1.272,0.2625732175318118,0.0,0.025504699428920075,0.025590628574942022,0.7189761309500546,8.021741557500395,134.514545272369,0.42405823600250286,100.0,0.7403529853128039,1,0,0,0,0,0,0
1.035,0.12118763886083621,0.0,0.06057335081835337,0.021368198983742454,0.6514503185384432,10.518414632693252,59.523809523809526,0.019529159920400874,100.0,0.7638976550608081,0,0,0,0,0,0,0
0.495,0.1817814582912543,0.0,0.021647273500088823,0.010005801170295873,0.31769198798814485,0.8718860245209705,57.25190839694656,0.03859687330705124,100.0,0.5943657006930474,1,0,0,0,0,0,0
1.551,2.1813774994950514,0.0,0.02150705354761281,0.02557483496754279,2.0271794214814918,56.90910939995718,52.03913993248001,0.046573645784674496,100.0,0.872257484509311,1,0,0,0,0,0,0
0.8959999999999999,0.12118763886083621,0.0,0.0314207862068907,0.005645014007925078,1.2907747874770013,11.11265060948427,62.177835051546396,0.1356105920850275,100.0,0.8214187606738783,1,0,0,0,0,0,0
1.3119999999999998,0.060593819430418104,0.2,0.1458447385575778,0.006168032947648918,0.20748477215723893,1.588967345047375,81.3032014512658,0.01154715980285577,100.0,0.5940287806865576,0,0,0,0,0,0,0
1.024,0.060593819430418104,0.0,0.03490220022080753,0.2828344760821331,0.5244354621738885,2.9322033463977606,121.95121951219512,0.26783862466765945,100.0,0.6457776485420802,0,0,0,0,0,0,0
0.954,0.7877196525954353,0.08,0.07430215098760135,0.006582009636689917,0.2596512367762832,2.0798843418280812,71.94244604316548,0.007720048479788818,100.0,0.6053633084949841,0,0,0,0,0,0,0
1.819,0.1817814582912543,0.06,0.051461380275409085,0.003773055369535598,0.7923417468665966,7.891415792929486,90.4979434353729,0.11245202571083222,100.0,0.7453294861664753,0,0,0,0,0,0,0
1.464,0.5857402544940415,0.0,0.0500959289682696,0.008535558517952005,1.5815402386712043,19.681245749345674,69.12442396313364,0.023110112734679972,100.0,0.8437952935072794,1,0,0,0,0,0,0
1.024,0.22217733791153302,0.0,0.03691727404753284,0.004457976894467157,1.8230917204446397,16.734712866617112,79.37007874015748,0.13301938583443382,100.0,0.8623068742047255,0,0,0,0,0,0,0
1.026,0.04039587962027873,0.0,0.038845761912060704,0.019920241112351595,0.5173332174212725,1.9178467828051282,103.33910403870325,0.1687612995837668,100.0,0.6299134596497794,0,1,0,0,0,0,0
1.549,0.5857402544940415,0.0,0.06805711941125427,0.02540467832761122,1.1233412393276205,25.017314690251695,56.71077504725898,0.021784009646778492,100.0,0.8061911361003804,0,0,0,0,0,0,0
1.2389999999999999,0.8685114118359927,0.0,0.023663239637398612,0.0061554283319077835,1.4430863725665612,11.169811905081302,55.35130718954248,0.01720622285946676,100.0,0.8323831240217714,0,0,0,0,0,0,0
1.48,0.2625732175318118,1.2,0.07489015680815468,0.004113407159598377,1.0641306972765985,13.247486611196233,83.2179132040628,0.04267101757635622,100.0,0.7992387082143578,1,0,0,0,0,0,0
1.798,0.08079175924055745,0.54,0.17938435513668724,0.003749301786150678,0.3159514417655405,2.9291537855679772,75.15614417939649,0.07986525486249808,100.0,0.6241745687583836,1,0,0,0,0,0,0
0.706,0.14138557867097556,0.13999999999999999,0.019955067545510567,0.0038875043982451443,2.110088642668967,18.697355467589215,76.53260445138618,0.04698909645740552,100.0,0.8813866268137329,1,0,0,0,0,0,0
1.735,0.6261361341143203,0.0,0.03811497291968112,0.010020545564921917,1.8437990199271828,21.994020778899635,67.87330316742081,0.04998595285928278,100.0,0.862954774020064,1,0,0,0,0,0,0
1.324,0.8685114118359927,0.0,0.04412599309158497,0.00346828176947412,1.640868609276735,8.262514313979379,65.15034331849392,0.03494962240738227,100.0,0.8216713341011767,1,0,0,0,0,0,0
0.841,0.14138557867097556,0.0,0.01698399094779108,0.00680601739126622,0.6684539408881724,5.523042585288611,69.12442396313364,0.21404982132967057,100.0,0.6983235545628561,1,0,0,0,0,0,0
1.512,0.5453443748737629,0.0,0.03500048085417875,0.0036957568155373604,2.056770602748945,15.390504408220693,68.64988558352402,0.011220517504899807,100.0,0.8774517902299029,1,0,0,0,0,0,0
1.088,0.7069278933548778,0.0,0.05160390656233621,0.002594187334586836,0.9046310980105542,8.801187321294696,65.43083026514827,0.015113997827583638,100.0,0.7684213558273687,1,0,0,0,0,0,0
1.806,0.14138557867097556,0.0,0.042875869263144115,0.011757259067028918,3.1067442902667453,27.84568788755791,74.62686567164178,0.019375071949744506,100.0,0.9325583919176357,1,0,0,0,0,0,0
1.061,0.1615835184811149,0.0,0.02288034576520411,0.0055926104302216,2.066030162850148,13.276148428918976,81.52715725732008,0.0777295287661984,100.0,0.8788162020015982,1,0,0,0,0,0,0
1.131,0.08079175924055745,0.0,0.03076281036622185,0.012835553384681564,2.1084440842196535,15.688399200010835,86.45533141210375,0.01603589377069985,100.0,0.8816838174495077,1,0,0,0,0,0,0
0.424,0.28277115734195113,0.0,0.03230256038379402,0.012886350959417656,0.33116716842601746,1.6126873118804852,81.74386920980926,0.002943115662842198,100.0,0.6066076193904983,0,0,0,0,0,0,0
1.558,0.6059381943041809,0.0,0.10342957490417856,0.008495119137133796,0.6261067379240068,11.489495810109966,71.42857142857143,0.010937862111905054,100.0,0.7605053242540554,1,0,0,0,0,0,0
1.183,0.10098969905069682,0.0,0.10513533397724248,0.005552107923098915,0.4299779795628387,3.2477540056053087,69.12442396313364,0.05038544714450539,100.0,0.6412201028322565,1,0,0,0,0,0,0
0.988,0.08079175924055745,0.0,0.09773293405413076,0.03209280379871772,0.1346683402811692,0.747163809762319,70.42292326766773,0.4492095710499504,100.0,0.5745036694372617,1,0,0,0,0,0,0
0.44,0.1615835184811149,0.0,0.040110951262402064,0.009479839559428023,0.1519368834652265,0.22883587075427014,60.97560975609756,0.02264239472136742,100.0,0.5682900821848913,1,0,0,0,0,0,0
1.339,0.22217733791153302,0.08,0.04295436181897842,0.010196575875439599,1.294400607145048,11.712158801613725,77.52145027209295,0.03629446196628368,100.0,0.8213595843216439,0,0,0,0,0,0,0
0.847,0.20197939810139365,0.06,0.042210871706651415,0.00948639554831246,0.4155883560728117,2.530559175888916,66.96428571428571,0.1331710898363656,100.0,0.6287294456950645,0,0,0,0,0,0,0
1.17,0.060593819430418104,0.0,0.025176661081828814,0.013549771725337337,3.0781866338346284,3.65424494971254,172.41379310344828,0.041792217814730304,100.0,0.8363897489216158,0,0,0,0,0,0,0
1.233,0.020197939810139363,0.0,0.027856510869131473,0.017319846285147628,1.2918483934623382,15.692467265436115,71.09004739336493,0.014243251930969984,100.0,0.8217104310877059,0,0,0,0,0,0,0
1.4929999999999999,0.42415673601292664,0.0,0.051239743879213547,0.0280068542143633,1.268788672258668,14.112283629412595,67.41879444085326,0.027256810530181655,100.0,0.8189703524414726,1,0,0,0,0,0,0
0.775,0.060593819430418104,0.0,0.02487798955565303,0.028100682237312796,0.6874709869635129,2.8994839246778197,72.81553398058253,0.17764785625738297,100.0,0.660939550360943,0,1,0,0,0,0,0
1.619,0.12118763886083621,0.0,0.3421046689526481,0.007539186739429915,0.026437838843186075,-1.1946739167135174,55.1472451720817,0.01295384386291281,100.0,0.5524013401680788,0,0,0,0,0,0,0
1.341,0.44435467582306604,0.0,0.016790179090200634,0.006157086141433384,0.979499119027241,17.760208681422327,56.76691729323308,0.018437377689060303,100.0,0.7937229235270985,1,0,0,0,0,0,0
2.212,0.38376085639264795,0.0,0.047825095610888435,0.0010659518324955678,0.6383728970296534,8.588493853675182,73.89162561576354,0.01099391787562537,100.0,0.740950795556113,0,0,0,0,0,0,0
1.0250000000000001,0.060593819430418104,0.3,0.07474303319073278,0.014342382015285463,0.43221634817849575,7.309972438986824,57.74831590570554,0.009654059184886495,100.0,0.7018534487357635,1,0,0,0,0,0,0
1.334,0.3231670369622298,0.0,0.04205315898943695,0.005570775812639271,1.7014428802145483,23.11030852403636,71.51380838731674,0.02241439462980235,100.0,0.8533320868772747,1,0,0,0,0,0,0
0.96,0.08079175924055745,0.0,0.019637318891776865,0.004947934861046538,1.3557024611392257,11.170295706412066,53.05541656242182,0.3595458965427258,100.0,0.8268764848903581,1,0,0,0,0,0,0
1.414,0.08079175924055745,0.0,0.06062780535178503,0.010583698468100604,1.4299057499681151,5.898542290438439,77.02194977259245,0.017874860746506693,100.0,0.7713800065030949,0,0,0,0,0,0,0
1.576,0.060593819430418104,0.06,0.11280532731353272,0.02466705646469752,0.6686119508977513,4.753639828443326,113.63636363636363,0.011088933223717923,100.0,0.6868391383234723,0,0,0,0,0,0,0
1.133,1.0502928701272471,0.5599999999999999,0.06693379430381853,0.011498977337883768,0.767471385178999,14.74738357294914,66.15223035854946,0.0778060495569388,100.0,0.7718949913966123,1,0,0,0,0,0,0
1.83,0.08079175924055745,0.0,0.14022955827569472,0.009971929411567689,0.340469991442667,0.8916928732705607,79.57559681697613,0.09281387581290423,100.0,0.5971153830277803,1,0,0,0,0,0,0
1.769,0.3231670369622298,0.0,0.045625087432195906,0.01767502451900972,2.643791055078112,33.849766202465084,68.57151813422777,0.02187586458885176,100.0,0.9114692137018678,0,0,0,0,0,0,0
1.46,0.1817814582912543,0.0,0.2698533139472892,0.027138850912917862,0.045636875028731566,-0.898197407113194,79.26037609414918,0.016529548250261376,100.0,0.554199772585424,0,0,0,0,0,0,0
1.294,0.14138557867097556,0.0,0.03971655850488972,0.0033235871324309957,0.8612569192859542,8.567834567743757,91.2157478859572,0.3974620137924711,100.0,0.7620698181249242,1,0,0,0,0,0,0
0.959,0.1817814582912543,0.08,0.1105815403421652,0.003174020646207643,0.27956904264477667,0.2812755117954171,83.10249307479225,0.021677638288692673,100.0,0.5815718252954106,1,0,0,0,0,0,0
0.876,0.1615835184811149,0.0,0.05137755390448816,0.060685580116675096,0.5435567200655523,2.7676197894023966,68.80733944954129,0.08816417398523599,100.0,0.6449597100353373,1,0,0,0,0,0,0
0.992,0.42415673601292664,0.5599999999999999,0.024545522587274743,0.004877914193579578,0.887209285193892,14.97551365251817,54.89483094601924,0.0037461568715698584,100.0,0.7842534961465467,1,0,0,0,0,0,0
0.522,0.060593819430418104,0.0,0.029591314835998056,0.013306249408539082,0.2655993448196709,1.7193811285009648,68.80733944954129,0.20721684222116457,100.0,0.6021602873964433,1,0,0,0,0,0,0
1.524,0.12118763886083621,0.0,0.1608274960855708,0.011719680004293593,0.30887814878718617,2.077381163240389,84.98583569405099,0.026861023868076546,100.0,0.6116974743893964,1,0,0,0,0,0,0
2.186,1.5350434255705918,0.0,0.07664906788548713,0.0228233320059757,1.323476250054296,22.23400964762006,57.915057915057915,0.012498363317091787,100.0,0.8213112533985347,0,0,0,0,0,0,0
1.518,0.5251464350636236,0.1,0.03975534873815504,0.0006285358208651989,0.28894026871324935,22.47334503751446,31.1690414507772,0.008116924429677505,0.0,0.5775547212853401,0,0,0,0,0,0,0
1.944,0.9695011108866897,0.0,0.04583592026876303,0.006844227333909661,1.922978408366775,24.31783486160611,65.359477124183,0.08580455522706364,100.0,0.8677335462932975,1,0,0,0,0,0,0
0.734,0.04039587962027873,0.0,0.03967493664444282,0.02188412097349296,0.4370777360930933,3.0331679256258726,65.72127843363086,0.03154566741602385,100.0,0.6388178522412791,0,0,0,0,0,0,0
1.1720000000000002,0.12118763886083621,0.0,0.09699033428862293,0.019334373185901466,0.4086037856206768,1.2601165002341679,82.5323544993567,0.08539510787092579,100.0,0.609268947646174,1,0,0,0,0,0,0
1.3099999999999998,0.44435467582306604,0.32,0.02331214495262131,0.011432326336775643,2.451059186052448,20.99652506789121,81.30081300813008,0.024508127851386303,100.0,0.900504642308357,1,0,0,0,0,0,0
1.27,0.14138557867097556,0.08,0.015081215734380898,0.0013229660586140922,0.6388319829358672,6.378420512691012,109.6895804925002,0.2332612684292807,100.0,0.7081683356156305,0,1,0,0,0,0,0
0.877,0.08079175924055745,0.0,0.05061084792128983,0.015303586058230415,0.7947483753341988,5.28409796763729,103.80622837370242,0.029790978402197278,100.0,0.7067662776832914,0,0,0,0,0,0,0
1.532,0.08079175924055745,0.0,0.030434749410258536,0.019774879475860863,2.4505998796148964,27.552989902905125,55.50421031012527,0.015864569880764134,100.0,0.9018466657198869,0,0,0,0,0,0,0
1.315,0.060593819430418104,0.0,0.18178013917241256,0.007207332152352511,0.17879601682703655,0.4530270199091304,76.92307692307692,0.2774645684966948,90.9090909090909,0.5608963162817723,0,0,0,0,0,0,0
0.762,0.12118763886083621,0.0,0.031425776195463447,0.042513951382073645,0.7639954130360124,6.584626023063018,89.82035928143712,0.22938541954831307,100.0,0.7233166924242447,0,0,0,0,0,0,0
2.669,0.060593819430418104,0.0,0.49185893356648414,0.01718935388724216,0.013919127448672741,0.5153024778364945,63.35804319319186,0.23871958378656694,100.0,0.559000252285784,1,0,0,0,0,0,0
0.851,0.22217733791153302,0.0,0.04618293796681398,0.002796711626842482,0.7108530458545912,5.226988163316319,65.78979007863035,0.019072903858136033,100.0,0.6977446065126014,1,0,0,0,0,0,0
1.096,0.08079175924055745,0.0,0.05293968266920732,0.006369541871809164,1.20408429698642,6.007969099778091,53.90839931286568,0.021418144986538407,100.0,0.754291929052933,0,0,0,0,0,0,0
1.867,0.14138557867097556,0.3,0.15518173186618522,0.011064335654396632,0.5310191470108216,5.51548736069423,89.28571428571428,0.017515111452004312,100.0,0.6844037339466653,1,0,0,0,0,0,0
1.3130000000000002,0.44435467582306604,0.0,0.020950506972592816,0.0070405426240843965,2.068283889791712,18.303729744397774,67.87330316742081,0.05149691746682238,100.0,0.8783956071579772,1,0,0,0,0,0,0
0.829,0.38376085639264795,0.0,0.052790733588703564,0.013975255414723796,0.59671018413812,4.182305148013588,75.85347142309166,0.026403745442328,100.0,0.6708634178101925,0,0,0,0,0,0,0
1.278,0.14138557867097556,0.0,0.02251653523717188,0.003066134808356689,2.319575041752033,18.495632905929906,81.52173913043478,0.0038185680855989113,100.0,0.8943516865601484,1,0,0,0,0,0,0
0.7969999999999999,0.989699050696829,0.0,0.024663312534352378,0.011475077626514648,1.2659935151483044,12.270308416647573,70.17630257066877,0.1663439476217932,100.0,0.8176042521679616,1,0,0,0,0,0,0
0.9950000000000001,0.3433649767723692,0.0,0.07790393929419041,0.016767847116976712,0.47316279821552815,5.0686733285632695,60.97560975609756,0.01835413992494163,100.0,0.6722711699534768,0,0,0,0,0,0,0
0.8380000000000001,1.7370228236719853,0.06,0.04930025995876731,0.009378837344307351,0.6229652543471439,3.994703816618421,64.1025641025641,0.03135988830658488,100.0,0.6677427946728496,0,0,0,0,0,0,0
1.245,0.12118763886083621,0.0,0.04411589631359083,0.031807020808301396,1.3769396294208562,13.177441573777347,69.12442396313364,0.010790703700251295,100.0,0.8285333501073798,1,0,0,0,0,0,0
2.333,0.04039587962027873,0.0,0.06301232928255517,0.04441714144795835,0.18013138479759797,3.2236687529730146,94.33962264150944,0.36361111709546656,100.0,0.6162657618542488,0,0,0,0,0,0,0
0.573,1.1512825691779438,0.0,0.03675789747464521,0.01480969707660413,0.46480020029362223,4.971627936988112,53.0035335689046,0.013217162015687138,100.0,0.6683835028591726,0,0,0,0,0,0,0
2.2809999999999997,0.08079175924055745,0.12,0.15241186410992655,0.008721552170896497,0.7904065791364525,4.567415539762441,163.9344262295082,0.23524221771222512,100.0,0.6953708101094004,0,1,0,0,0,0,0
1.672,0.24237527772167242,0.06,0.031526402956626856,0.009513719592801182,2.402703624867452,28.171077241490245,76.33587786259541,0.01893450264463381,100.0,0.8987573376314659,0,0,0,0,0,0,0
0.532,0.3231670369622298,0.0,0.030622730974041352,0.010660892670945974,0.610327011779528,3.412519005108808,78.22699086161879,0.04049964945116109,100.0,0.6607458395173366,0,0,0,0,0,0,0
1.544,0.3635629165825086,0.06,0.02184426727622191,0.007165174473692935,0.4348786919159171,26.000233270363665,96.46302250803859,0.18452326535009858,100.0,0.7423386745656004,0,0,0,0,0,0,0
1.282,0.3231670369622298,0.0,0.07436892737389177,0.0034480334523088177,1.3981774547336403,17.804661316086662,69.28406466512702,0.038803141948658824,100.0,0.8298565732822237,1,0,0,0,0,0,0
1.144,0.6463340739244596,0.0,0.016675780741609973,0.003437743991863345,1.092709546852736,5.9476742483159075,73.17073170731707,0.05205770374143943,100.0,0.7426045058155206,1,0,0,0,0,0,0
1.347,0.24237527772167242,0.0,0.04668940289538869,0.004685309928049417,1.999031254244019,12.261086938540794,66.77726057244726,0.057792282238579414,100.0,0.874286148523957,1,0,0,0,0,0,0
1.307,0.3635629165825086,0.0,0.018301989896323204,0.00277613886027413,1.3830837649242134,6.627034310076725,55.735725375194065,0.44938361909943303,100.0,0.777954876429277,0,0,0,0,0,0,0
1.147,0.060593819430418104,0.0,0.04775167276835459,0.006929041755812478,0.6667042374371398,17.20349706820547,45.012494090632806,0.028289788403964553,100.0,0.7654729149413608,0,0,0,0,0,0,0
1.038,0.1615835184811149,0.0,0.05961594574508471,0.003082833987683534,1.1053393595304675,12.483963782824638,67.56756756756756,0.024760639868188362,100.0,0.8054664612211766,1,0,0,0,0,0,0
1.01,0.5453443748737629,0.0,0.03817354353544186,0.008238093085591782,0.8283614951070417,15.66655009791339,47.61904761904762,0.030301443398448702,100.0,0.7797025290039562,0,0,0,0,0,0,0
1.3940000000000001,2.322763078166027,0.0,0.06007967070923365,0.004297065357231954,1.2111698836494407,22.05630629031009,55.30184101612673,0.034603974882857554,100.0,0.8102935465479808,0,0,0,0,0,0,0
0.98,0.04039587962027873,0.0,0.04860419450134136,0.016292433800144786,0.4011158362535942,1.8231988978144384,125.12408338403407,0.5656824148502048,100.0,0.6171414460083425,0,0,0,0,0,0,0
1.304,0.08079175924055745,0.06,0.0251392477014647,0.004878989320024997,2.121415529683611,21.243804189228996,69.60556844547564,0.03510213767933421,100.0,0.882382215840177,0,0,0,0,0,0,0
0.544,0.12118763886083621,0.0,0.01558450799794422,0.031676141408822,0.27437605463959536,0.8360900204199551,75.18796992481202,0.1971359776543068,100.0,0.5896603332320958,0,0,0,0,0,0,0
1.0030000000000001,0.1615835184811149,0.18,0.06876422867579844,0.008210626750480999,0.648662381784409,3.497328822062399,72.21063607924921,0.04758279704425459,100.0,0.6656506929561751,0,0,0,0,0,0,0
3.483,0.04039587962027873,0.0,0.03800820540751888,0.0030637860225558966,2.4526867037306053,14.276343751828833,90.63526834611172,0.029278771179444624,100.0,0.902041466775233,0,0,0,0,0,0,0
1.837,0.14138557867097556,0.0,0.027612640500626007,0.001490749309015064,0.44962483321292324,2.99794468393229,131.0668498168498,0.16795928362037862,100.0,0.6393152234500322,0,0,0,0,0,0,0
1.158,1.0502928701272471,0.0,0.050801197716546106,0.017525088592151655,1.2412834804351178,11.6188022171039,65.21739130434783,0.11570660124138635,100.0,0.8153978839074227,0,0,0,0,0,0,0
1.1989999999999998,0.14138557867097556,0.0,0.0735233119760103,0.04251161780569513,0.5526823752240684,5.5861207222515805,51.54639175257732,0.23739825376383303,100.0,0.6881603871795177,0,0,0,0,0,0,0
1.2429999999999999,0.10098969905069682,0.06,0.06303260146252242,0.0036605088891983827,1.1503170553586968,9.917670794930924,87.97653958944281,0.018742996810625592,100.0,0.8081501808164215,0,0,0,0,0,0,0
1.702,0.12118763886083621,0.22,0.061649711848779196,0.002440009485183646,0.6283957223048137,4.561798877225158,77.22122838401907,0.031972389934520076,100.0,0.6796809849922818,1,0,0,0,0,0,0
1.593,0.08079175924055745,0.0,0.15964942163588064,0.009595554770189097,0.22921013581904623,2.8932095822198773,63.02521008403362,0.006731243119505913,100.0,0.6161130774015957,0,0,0,0,0,0,0
1.1560000000000001,1.2926681478489193,0.0,0.05606432462973136,0.01361045682748012,1.057302296501403,11.960047344636708,68.57151813422777,0.0335546539724241,100.0,0.7989744011770777,1,0,0,0,0,0,0
1.854,0.060593819430418104,0.0,0.12314673869085487,0.01863194009875608,1.029964236254719,3.466000679872625,111.52416356877323,0.004249554984340153,100.0,0.7010006369365939,0,0,0,0,0,0,0
1.488,0.12118763886083621,0.0,0.0672285642859919,0.009658240610498237,0.7218497970059329,7.953212983352087,65.50218340611353,0.005979063041942323,100.0,0.7398792399955073,0,0,0,0,0,0,0
1.356,0.42415673601292664,0.1,0.06593939077298815,0.007308047446246409,0.950058399175199,16.882496215918586,60.60606060606061,0.002130914863188686,100.0,0.7909039182664115,0,0,0,0,0,0,0
2.547,0.22217733791153302,0.0,0.04506682245811693,0.2202765299734157,0.728340948749436,73.07126673632905,72.46376811594203,0.008226756688579482,100.0,0.770991690091694,0,0,0,0,0,0,0
1.24,0.42415673601292664,0.0,0.04545023567508558,0.0011166423009614933,0.4147139828615895,4.70716824245766,78.32951570680629,0.023205343345617933,100.0,0.6609684429794563,0,0,0,0,0,0,0
1.599,0.08079175924055745,0.0,0.031492766587542485,0.006029468264689207,2.558022182203147,21.021669145583694,63.898415809243836,0.00843948779862841,100.0,0.9075775806286267,0,0,0,0,0,0,0
1.2429999999999999,1.0502928701272471,0.0,0.026338264581463676,0.007175162394140457,1.01715879913148,8.592807931810079,64.23982869379014,0.06796551363362616,100.0,0.7747810224245735,0,0,0,0,0,0,0
0.978,0.08079175924055745,0.0,0.07658365806894783,0.02666007821954184,0.2971098622397068,0.7633618180118109,65.46508528784648,0.06218825147807523,100.0,0.5909030719529658,1,0,0,0,0,0,0
1.153,0.42415673601292664,0.0,0.023735738777599324,0.0013608363090209016,0.6385358785102628,6.660675185222585,78.32898172323759,0.013457200616085059,100.0,0.7119683054793484,0,0,0,0,0,0,0
0.871,0.1615835184811149,0.0,0.0178513752791642,0.022382691916319662,2.148233651264062,16.95791391599602,74.9074177982269,0.025990437215985127,100.0,0.8840190252235565,1,0,0,0,0,0,0
1.904,0.12118763886083621,0.0,0.046746818701241054,0.01867728584111096,1.1389265839644487,27.19928273782902,52.91005291005291,0.088461797370756,100.0,0.8084766328044591,0,0,0,0,0,0,0
0.7130000000000001,0.3433649767723692,0.0,0.04783854347778893,0.0019722078320463087,0.09768566921993638,-0.3175043187608937,74.44168734491315,0.06395811511467225,100.0,0.5590783859708656,0,0,0,0,0,0,0
0.996,0.14138557867097556,0.0,0.06805182896642198,0.019903233255916364,0.7389672859391498,8.078600562394119,66.07961574848991,0.019139221127630633,100.0,0.7433338142229872,0,0,0,0,0,0,0
2.6,0.060593819430418104,0.0,0.07720143492662007,0.14848867241463115,0.3367495224795811,19.5234212013341,63.15789473684211,0.23119586952326543,100.0,0.7334130387266351,0,0,0,0,0,0,0
1.663,0.12118763886083621,0.0,0.06355697723053919,0.009863573251098446,1.622331567144332,21.238234317239424,66.00731962356221,0.022196976475260997,100.0,0.8478304380681438,1,0,0,0,0,0,0
1.139,0.08079175924055745,0.0,0.033467099677858686,0.0026116665402547445,1.9663011157910701,15.065290162321787,65.72127843363086,0.031102077830595404,100.0,0.8724333777897245,1,0,0,0,0,0,0
1.111,0.30296909715209047,0.0,0.06155378914432819,0.045714759123192436,0.551094247263984,4.373979273138333,60.483870967741936,0.018829003460301322,100.0,0.669501541229598,0,0,0,0,0,0,0
1.28,0.060593819430418104,0.0,0.07632837512506631,0.02554018521020976,0.5823269840834884,3.9002721170455423,71.00601660448388,0.011927014766883091,100.0,0.6658950799276996,0,0,0,0,0,0,0
1.5250000000000001,0.12118763886083621,0.0,0.03566619199838819,0.012222581084569835,1.1250150363536582,13.580120665347355,66.8903803131991,0.02627500274782962,100.0,0.8072661547636348,0,0,0,0,0,0,0
0.9670000000000001,1.6158351848111492,0.0,0.02372996297018675,0.005804095049722277,0.7879479076875806,8.231866052617143,47.39336492890995,0.3075475371948178,100.0,0.7472778726342494,1,0,1,0,0,0,0
1.065,0.060593819430418104,0.06,0.09217221855469673,0.006893424113682329,0.5891802343950094,0.7612572417833374,102.73972602739727,0.014655028444386469,100.0,0.6193497048600234,0,0,0,0,0,0,0
1.191,0.060593819430418104,0.16,0.02106693816210103,0.0019554568818194464,0.30890940076406176,8.559879811965866,68.57223464504399,0.019366909137163185,100.0,0.7087392340571708,0,0,0,0,0,0,0
0.6719999999999999,0.08079175924055745,0.0,0.03425785839838913,0.05578058509190771,0.7066212912837256,2.2547092797502133,59.05717773342892,0.3430068543707445,100.0,0.6530427855182993,0,0,0,0,0,0,0
1.251,0.42415673601292664,0.0,0.03369517168584614,0.010978221795463879,0.39878345742939797,16.250629852960945,109.4890510948905,0.5365528943863149,100.0,0.7387967997360003,0,1,0,0,0,0,0
1.554,0.08079175924055745,0.0,0.04900336702720196,0.02079906523658776,3.088869109158192,14.389287124713452,106.76156583629893,0.023993553234896523,100.0,0.9319655490313286,1,0,0,0,0,0,0
1.4860000000000002,0.04039587962027873,0.0,0.06082386997748272,0.01654492403714248,1.048593448433259,3.5888587699101917,94.48842330813642,0.005137390138434604,100.0,0.7045399931878693,1,0,0,0,0,0,0
1.605,0.04039587962027873,0.0,0.04995647314249799,0.06285995538949853,2.382902725764823,4.609558536272108,112.78195488721803,0.005545691725338911,100.0,0.8173141648430751,0,0,0,0,0,0,0
1.45,0.4039587962027873,0.1,0.044312665447277515,0.006927741357121835,1.3466657442668315,8.427256312547934,56.81838562609628,0.004777229690438814,100.0,0.8016964239762161,0,0,0,0,0,0,0
1.173,0.08079175924055745,0.0,0.059194109911699155,0.005009970605503897,0.6853900001702746,1.6240611876466398,79.16063272808287,0.023480013415379905,100.0,0.6415702402930138,1,0,0,0,0,0,0
1.09,0.08079175924055745,0.0,0.03048263157375388,0.0055774236791828555,1.185804848982333,12.584247615054759,75.18796992481202,0.02717587446715944,100.0,0.8126063345368255,1,0,0,0,0,0,0
1.4749999999999999,0.04039587962027873,0.0,0.03545510825218603,0.006928168983501663,2.459559043036613,7.617413119901885,100.50279455006623,0.010922544544908454,100.0,0.8666773646744629,0,0,0,0,0,0,0
1.013,0.08079175924055745,0.0,0.014382103060884334,0.010411512323405227,1.530432821166815,8.254522141831197,81.08108108108108,0.2930900073478633,100.0,0.814673529328921,0,0,0,0,0,0,0
0.83,0.08079175924055745,0.0,0.008549288845698201,0.020213458201547338,1.051564894946312,7.087526215901407,85.47008547008548,0.003251292624519495,100.0,0.7572027316031799,0,0,0,0,0,0,0
1.095,0.12118763886083621,0.0,0.029021443578344273,0.0075966559292463725,1.2509604358614248,17.654540004488624,73.89566029837346,0.21816401082311843,100.0,0.8180743100532107,0,1,0,0,0,0,0
2.311,0.1615835184811149,0.0,0.41109601917267735,0.0032853066015763443,0.04588994584874463,-0.7684983882804461,77.82114258798197,0.022092775651031186,100.0,0.5542654696590149,0,0,0,0,0,0,0
0.769,0.08079175924055745,0.0,0.021926800564734734,0.022755094008401387,1.1794670286941653,13.384532826443333,57.47126436781609,0.030229675329184746,100.0,0.8120616714009643,1,0,0,0,0,0,0
1.22,0.3231670369622298,0.0,0.018823159052019273,0.00509820029040002,2.4370004703913386,17.106322576959776,80.21619766643789,0.02580554634607592,100.0,0.9006163208226641,1,0,0,0,0,0,0
1.079,0.28277115734195113,0.0,0.030650154162761064,0.018933852498926127,1.7706360653397109,20.35629662410829,80.86488371586128,0.049455034891465716,100.0,0.8584488813002065,1,0,0,0,0,0,0
1.008,3.272066249242577,0.0,0.029026237884483046,0.0032120736348560286,1.910598982709333,19.786110801464876,63.62679477491094,0.026421820163977598,100.0,0.862284495877616,0,0,0,0,0,0,0
0.46199999999999997,0.04039587962027873,0.0,0.04971277148782717,0.03446824085674466,0.18636171455989287,-0.44915112289169024,86.20689655172414,0.18854416013904854,100.0,0.5685314445284152,0,0,0,0,0,0,0
1.28,0.10098969905069682,0.0,0.06049531575809197,0.009501365569256159,1.1370515835527608,16.22210840522952,76.14213197969544,0.013372406822820275,100.0,0.8083541164008896,0,0,0,0,0,0,0
1.4979999999999998,0.28277115734195113,0.0,0.04134544977085668,0.00438127209610295,1.7925357814482195,27.276120040773186,64.44690571784577,0.0340160163613667,100.0,0.8600174810250881,1,0,0,0,0,0,0
1.245,0.12118763886083621,0.0,0.026419171434719422,0.0040728917714677,1.4360675118643003,17.573052650218738,64.93506493506493,0.020873510923523304,100.0,0.8333155837897248,1,0,0,0,0,0,0
1.0750000000000002,0.44435467582306604,0.0,0.12979629236469864,0.00887086177283565,0.19108976794539093,0.662699486849216,136.986301369863,0.05569137951794147,100.0,0.5781349582843988,0,1,0,0,0,0,0
0.7789999999999999,3.1710765501918807,0.0,0.019837054146139982,0.01663808742998357,0.6708066000666931,25.831607974167877,48.54368932038835,0.017921182452850553,100.0,0.7596424567758985,1,0,1,0,0,0,0
1.2040000000000002,0.12118763886083621,0.0,0.06572489741602182,0.00474740432701154,1.2858162351596338,3.8595686029148633,102.04081632653062,0.13969412433553752,100.0,0.7288977054984949,0,1,0,0,0,0,0
1.544,0.3433649767723692,0.0,0.06367919300442225,0.003361405416710867,1.2729622887435046,21.49856607329385,54.89703666499246,0.03741872340853572,100.0,0.8194825263818792,1,0,0,0,0,0,0
1.829,0.060593819430418104,0.0,0.04988296447871982,0.08228722512289753,1.0392482026824696,23.728430830189524,77.82114258798197,0.02330851592818515,100.0,0.7998368040972949,0,0,0,0,0,0,0
0.5509999999999999,0.12118763886083621,0.0,0.024476095947604266,0.03586350900086735,0.21442043866096241,1.1357935488167996,71.09004739336493,0.02135082957507824,100.0,0.5882001343457048,1,0,0,0,0,0,0
4.375,0.7069278933548778,0.12,0.047569326127493705,0.0013982359285136742,0.3041375570099432,13.051136519667267,86.71172111906571,0.3633220637154319,100.0,0.7286561316108974,0,0,0,0,0,0,0
1.038,0.060593819430418104,0.0,0.01589327629829009,0.011903965417562551,1.0363472278854384,14.68818617284359,51.813626058942845,0.013250634141101112,100.0,0.7995788295577567,1,0,0,0,0,0,0
1.3980000000000001,0.14138557867097556,0.1,0.1516021304645762,0.002690484238246057,0.10907921816666528,0.13265211046332137,87.71929824561403,0.3294582358520631,100.0,0.562410127987862,0,0,0,0,0,0,0
1.465,0.12118763886083621,0.0,0.0614058240991673,0.003115393902770268,1.8804651700785084,17.907366885220508,89.55223880597015,0.06254124427742956,100.0,0.86651557790926,0,0,0,0,0,0,0
1.165,0.060593819430418104,0.0,0.03457784104367014,0.045548798484311225,1.6802587710725123,6.086899310191459,80.4289544235925,0.006693483688289502,100.0,0.7935947307928483,0,0,0,0,0,0,0
1.839,0.7473237729751565,0.0,0.19355968273010088,0.013808884846030045,0.5489016250629463,6.189752670132588,73.80084966291864,0.10124544462078157,100.0,0.6956373781715639,1,0,0,0,0,0,0
1.397,0.020197939810139363,0.0,0.14277209027341695,0.018256529837309934,0.30452994839366443,2.730904118037829,82.87292817679558,0.007192584259194219,100.0,0.6212719913710937,0,0,0,0,0,0,0
2.495,0.08079175924055745,0.06,0.03360628716138978,0.015494568098616154,2.228319176957804,21.149049033222493,84.03361344537815,0.03918530174582798,100.0,0.8889637132511609,1,0,0,0,0,0,0
0.585,0.08079175924055745,0.0,0.028393681056582014,0.03296857099494585,0.26512482763145484,1.8476008084296494,145.63106796116506,0.2592711629867368,100.0,0.6039961043367325,0,1,0,0,0,0,0
1.1440000000000001,0.14138557867097556,0.0,0.059357244044925275,0.011739736547549418,1.1696600067858915,13.724410970635162,60.60606060606061,0.03198731140224776,100.0,0.8110959854433488,1,0,0,0,0,0,0
0.8160000000000001,0.08079175924055745,0.0,0.015672994582213343,0.008119253577450102,1.888422958459176,19.32230754467392,64.6551724137931,0.022571198621629148,100.0,0.8671454577263561,1,0,0,0,0,0,0
1.272,0.20197939810139365,0.0,0.04451762299226323,0.017097777633292375,0.8736982774973233,4.507415258340338,80.64574405815743,0.036455982299316035,100.0,0.702187984801172,1,0,0,0,0,0,0
1.771,0.060593819430418104,0.0,0.037195089210559924,0.02855129495388245,1.1921030179365941,20.709662167793006,78.43150656842508,0.021999813329385245,100.0,0.8131871297124752,0,0,0,0,0,0,0
1.381,0.3231670369622298,0.0,0.14387112006982333,0.0022612019955649742,0.2776752446984123,0.5415358667735677,66.51884700665188,0.03343648281828632,100.0,0.5851652038387805,1,0,0,0,0,0,0
1.1889999999999998,0.3433649767723692,0.0,0.0710739383319651,0.017876029560678932,0.7813583743841053,10.851952539227897,71.94244604316548,0.0495291432057846,100.0,0.7757289685431098,1,0,0,0,0,0,0
1.338,1.1916784487982226,0.0,0.03674116916027917,0.042730907348476684,2.133619333088321,14.081935971735689,71.25890736342043,0.02441992133503541,100.0,0.8810464846466165,0,0,0,0,0,0,0
1.23,0.14138557867097556,0.0,0.07264866928746848,0.0153248435547865,0.7527161566276245,9.395104693853193,75.94936708860759,0.04797826019233574,100.0,0.764374664053799,1,0,0,0,0,0,0
1.092,0.5251464350636236,0.0,0.022243894332823807,0.010701139528465022,1.5000748151936139,25.227195211156307,54.2997542997543,0.03921822093115072,100.0,0.8375907380640083,1,0,0,0,0,0,0
0.7969999999999999,0.060593819430418104,0.0,0.008655491365727824,0.014447868694727558,0.598325405998643,3.989891259772958,74.07407407407408,0.017874301435748835,100.0,0.668778823927528,1,0,0,0,0,0,0
0.802,0.12118763886083621,0.0,0.02711337342710763,0.01455662466565273,0.4587647922354015,1.4429354242138892,64.17119639817713,0.09069984786379158,100.0,0.616923841621397,0,0,0,0,0,0,0
1.561,0.7271258331650172,0.0,0.031081405857977147,0.03850146545564916,2.120621123350363,39.10827525377791,60.0,0.008042525642392929,100.0,0.8811595503459023,0,0,0,0,0,0,0
2.457,0.08079175924055745,0.0,0.3478250701607062,0.009243031168553136,0.053091088185038174,5.9752331998605595,121.45748987854252,0.12940615243639852,100.0,0.644775469123206,0,1,0,0,0,0,0
0.857,0.04039587962027873,0.0,0.031080455227745166,0.014047392467590626,0.7692327733777066,6.407279334485031,74.81296758104737,0.019549363963209863,100.0,0.7213090472970718,1,0,0,0,0,0,0
0.9450000000000001,0.08079175924055745,0.0,0.021419916896714335,0.007621842778695655,0.673332797060667,6.669227677831808,66.52702383762096,0.0311064377758401,100.0,0.7161017955596574,1,0,0,0,0,0,0
1.384,0.7675217127852959,0.0,0.021959418048836846,0.005451514425158384,1.2670891486340072,17.858680596921456,57.14285714285714,0.03689368747890597,100.0,0.8181407480722145,1,0,0,0,0,0,0
1.692,0.7877196525954353,0.0,0.049502002841393014,0.0010122472217935887,0.4164444111559249,6.867208323306665,73.4527277304276,0.48458071228149274,90.0,0.677811682591125,0,1,0,0,0,0,0
1.0579999999999998,1.1310846293678045,0.0,0.05373477138539724,0.006630041073779418,1.1845924171041098,7.623557474391006,57.69230769230769,0.012229989749996117,100.0,0.7747549830397901,0,0,0,0,0,0,0
0.712,0.08079175924055745,0.0,0.034264120084168195,0.010842554595233669,1.4130454537099553,4.4090358712716196,81.08108108108108,0.01594846226676183,100.0,0.7476797064877408,0,0,0,0,0,0,0
0.8,0.08079175924055745,0.0,0.06856663265571684,0.06408153266044803,0.39858042437255325,2.3291584587716425,78.63709444696377,0.005869604733525409,100.0,0.6244009576583408,0,0,0,0,0,0,0
1.183,0.1817814582912543,0.0,0.07560948809490245,0.00558696491790705,0.8288637014917388,8.345374644733532,67.2090112640801,0.12481567639936714,100.0,0.75565685063048,1,0,0,0,0,0,0
0.45999999999999996,0.060593819430418104,0.0,0.02942532719004042,0.053614661047719274,0.1803612716802441,1.052487860046595,91.88382957167784,0.01262054323240072,100.0,0.5836805584823463,1,0,0,0,0,0,0
0.6890000000000001,0.08079175924055745,0.0,0.03943771774468169,0.046720014060819604,0.4526280611370736,0.4466721130629434,72.99313284394981,0.1287357750176741,100.0,0.6014609552415164,0,0,0,0,0,0,0
1.184,0.7473237729751565,0.0,0.028645292176397143,0.003860796794614462,1.0077997352842687,15.79073653550181,63.02521008403362,0.013059188496101107,100.0,0.7956579353622218,1,0,0,0,0,0,0
0.405,0.14138557867097556,0.0,0.007927915271648864,0.016593660655720596,0.30068315391891265,2.3859773923265424,62.89418745192836,0.2924980081558724,100.0,0.6154749233454692,1,0,0,0,0,0,0
1.319,0.020197939810139363,0.0,0.05443166062168786,0.010843276079161137,1.112551654653289,10.348430500676074,72.46376811594203,0.01099467070567635,100.0,0.8063802412769198,0,0,0,0,0,0,0
1.145,0.6059381943041809,0.0,0.10017238691655915,0.005445103225217411,0.255128155112761,1.1362883750373118,127.11864406779662,0.23227766348253326,100.0,0.5912839370188392,0,1,0,0,0,0,0
1.6989999999999998,0.04039587962027873,0.0,0.023797293421640137,0.007007747861502442,1.6026948961333516,24.985719980863283,65.57384881465414,0.014416775868920092,100.0,0.8465019450308964,0,0,0,0,0,0,0
0.438,0.1615835184811149,0.06,0.023109066134846628,0.013082276296975521,0.5675691562840051,1.0873730646474318,79.47703061181524,0.15386896406893394,100.0,0.621956739084255,0,1,0,0,0,0,0
1.159,0.060593819430418104,0.0,0.029223879840498755,0.006839581506980727,0.7846476260433499,21.29953284010415,40.98429495254892,0.014516588876244284,100.0,0.7766020087772255,1,0,1,0,0,0,0
1.1400000000000001,0.6059381943041809,0.0,0.1755727433374089,0.0025711588876553386,0.03214092885104833,0.33506099517362653,45.59270516717325,0.016478672117970095,100.0,0.5570280084562546,0,0,1,0,0,0,0
1.855,0.10098969905069682,0.0,0.07234078688845985,0.030401419122727643,1.410016477097034,23.99250343191944,67.41573033707866,0.009162008608616504,100.0,0.8312591463672527,0,0,0,0,0,0,0
0.8029999999999999,0.6867299535447384,0.0,0.019144371705285615,0.008682206411526384,2.7942702357382205,11.818279408209024,77.720207253886,0.008079104206249537,100.0,0.9180035942529173,1,0,0,0,0,0,0
1.294,0.060593819430418104,0.0,0.135027181187395,0.02503584785788662,0.11520317007243282,0.6338981431825328,71.00840336134453,0.026079758118637594,100.0,0.570901942076495,1,0,0,0,0,0,0
0.537,0.060593819430418104,0.0,0.035715074777881,0.02715565871227929,0.43860490309855865,1.449760690095129,52.2654428904429,0.35631971409389557,100.0,0.6151758572169665,0,0,0,0,0,0,0
0.912,0.4039587962027873,0.0,0.047215656969022676,0.01142190802037911,0.7805049966065817,6.290529569326543,77.61979354942362,0.02520576883397162,100.0,0.7198859177517416,0,0,0,0,0,0,0
0.964,0.08079175924055745,0.0,0.03843834661376962,0.006580216752688643,0.9953930601367188,1.6642229429125086,109.89010989010988,0.3950529357832067,100.0,0.6708423063169614,0,0,0,0,0,0,0
0.9319999999999999,0.3231670369622298,0.0,0.03442536984005124,0.007642395100275767,1.9788726687735267,13.565762841930102,74.44168734491315,0.05277970263208738,100.0,0.8727876501187385,1,0,0,0,0,0,0
1.641,0.14138557867097556,0.0,0.11640979361774217,0.009785675009219409,0.6504009477684494,7.524139623905338,73.17073170731707,0.019972815052311476,100.0,0.7266192057017774,1,0,0,0,0,0,0
0.993,0.20197939810139365,0.0,0.050920879697458454,0.002085957976687951,0.5477778225451923,1.9908904506848568,58.13953488372093,0.01713033711469012,100.0,0.6336364257695093,0,0,0,0,0,0,0
1.432,0.04039587962027873,0.0,0.028344681850928085,0.02657392769801107,3.045751509545369,7.6524813240248175,102.04081632653062,0.0056994085990658945,100.0,0.8950839145717532,0,0,0,1,0,0,0
1.54,0.08079175924055745,0.0,0.040456952151170046,0.008716199912317561,2.3462175826942464,8.879526428575364,76.92307692307692,0.006972234163115446,100.0,0.8791997151339407,0,0,0,0,0,0,0
1.145,0.5655423146839023,0.06,0.03212387192944875,0.009809165478043965,1.8123204291952457,17.31278530396956,79.68253968253968,0.015691095092575075,100.0,0.8607385455600634,1,0,0,0,0,0,0
0.835,0.1615835184811149,0.0,0.06341705899581263,0.018731720790546417,0.861699397881928,5.73012026350238,92.87925696594426,0.012745621980153289,100.0,0.7195044984366455,1,0,0,0,0,0,0
1.293,0.04039587962027873,0.0,0.0302872522057354,0.03179687870415062,1.375191822059328,7.8874529347380005,100.67227458531806,0.05181615956374416,100.0,0.7968641159477455,0,0,0,1,0,0,0
0.6990000000000001,0.14138557867097556,0.0,0.052225664117061546,0.015931063083742612,0.330101595668073,1.8398303711454238,69.44444444444444,0.003734466833747061,100.0,0.6101922630578565,0,0,0,0,0,0,0
2.153,0.12118763886083621,0.0,0.058615441508684175,0.0009124051607938393,0.18009508450025485,13.686136551599851,83.82339771336459,0.49017045298888584,100.0,0.7177455300646138,1,0,0,0,0,0,0
1.05,0.10098969905069682,0.0,0.03132928000236778,0.03834814607574459,1.7274452542309826,10.703541989409374,72.81553398058253,0.012869886883377948,100.0,0.8556831494533497,1,0,0,0,0,0,0
1.225,0.30296909715209047,0.0,0.0501296099378571,0.04823156545571866,1.1450699773389268,17.00617710694289,72.99270072992701,0.015407509137429012,100.0,0.8086463307161186,1,0,0,0,0,0,0
1.779,0.060593819430418104,0.06,0.113811351052814,0.014191467989951375,0.4000158542218683,3.1530822229995,62.24066390041494,0.24352856359019232,100.0,0.6368212397899211,1,0,0,0,0,0,0
1.797,0.3231670369622298,0.0,0.12181456668466424,0.02397626748774135,0.5182053852209589,8.156331615254388,80.64516129032258,0.13583206337593445,100.0,0.723009859388083,0,0,0,0,0,0,0
1.19,0.12118763886083621,0.0,0.044103908720552726,0.011496989582409344,0.6844879595850258,4.54255095677733,69.60556844547564,0.030785123711076365,100.0,0.6851811343606271,0,0,0,0,0,0,0
1.541,0.1817814582912543,0.0,0.20843547272283816,0.005251018549359975,0.14380406625939796,-0.39793799732350044,83.7017090558167,0.2209546059792358,100.0,0.5640058397046963,0,1,0,0,0,0,0
1.295,0.22217733791153302,0.0,0.04635626481156035,0.004588278126155109,1.5835597258293266,12.476550713462299,70.75471698113208,0.04380818991560138,100.0,0.8446771618516823,0,0,0,0,0,0,0
0.5840000000000001,0.12118763886083621,0.0,0.041388844364626684,0.016648273343249507,0.5551162178352292,2.134923345586235,91.1854103343465,0.15374828606615062,100.0,0.6366680948166499,0,1,0,0,0,0,0
1.2690000000000001,0.1817814582912543,0.0,0.03759700056238002,0.015060079562016304,0.6484759186002667,10.237679770024458,60.0,0.2399138938944119,100.0,0.7634925634662781,0,1,0,0,0,0,0
1.593,0.42415673601292664,0.0,0.028849226612096497,0.010475998554301348,1.9759065629156112,18.881848252898816,63.15901445344184,0.05538983595519356,100.0,0.8723880789560117,1,0,0,0,0,0,0
0.9410000000000001,0.8483134720258533,0.0,0.05990369958567352,0.004191748640670927,0.6629301005666254,5.799699596173323,73.52941176470588,0.03162915792405224,100.0,0.7005335000356767,1,0,0,0,0,0,0
2.035,0.060593819430418104,0.06,0.11483916416376569,0.00483934784507829,1.359555874393337,10.011722351266357,79.26037609414918,0.032957085626105324,100.0,0.8271129511503982,0,0,0,0,0,0,0
1.2029999999999998,0.22217733791153302,0.0,0.031921277692917374,0.033816630734447024,1.364300177466728,19.006383565233296,84.03361344537815,0.027068058842139968,100.0,0.8272984551491003,1,0,0,0,0,0,0
0.8190000000000001,0.4039587962027873,0.06,0.01467223313852231,0.0053829939917799715,1.9314026979635501,10.621662472406564,83.4493964716806,0.02856175330790391,100.0,0.8693166776745058,1,0,0,0,0,0,0
1.3780000000000001,0.04039587962027873,0.0,0.13699666464400595,0.03754431512996179,0.32837000361588536,3.526107579393642,80.53705785695755,0.010036211734689982,100.0,0.6355173102806814,1,0,0,0,0,0,0
1.245,0.14138557867097556,0.0,0.029435160787423524,0.015880049649858095,2.3377221276094127,15.296630840330494,99.00990099009901,0.04878544263247508,100.0,0.8953984318856111,1,0,0,0,0,0,0
1.3820000000000001,0.7271258331650172,0.0,0.027363747550038432,0.012581072119322911,1.285736388563184,16.866888892238016,63.55932203389831,0.07940476404935204,100.0,0.8197856195601715,1,0,0,0,0,0,0
1.355,0.28277115734195113,0.12,0.03568677493248072,0.007969026663840459,1.38532629057335,21.04638015431685,72.28915662650603,0.0831637213799784,100.0,0.8286534967926448,0,0,0,0,0,0,0
